Absorption wavelength (nm);normalized Absorption;emission wavelength (nm);Normalized emission;
271;0.9772;397;0.0010;
272;0.8520;398;0.0011;
273;0.7662;399;0.0012;
274;0.6843;400;0.0012;
275;0.5977;401;0.0013;
276;0.5417;402;0.0014;
277;0.4918;403;0.0015;
278;0.4421;404;0.0016;
279;0.4118;405;0.0017;
280;0.3860;406;0.0018;
281;0.3619;407;0.0019;
282;0.3484;408;0.0020;
283;0.3381;409;0.0022;
284;0.3302;410;0.0022;
285;0.3271;411;0.0023;
286;0.3264;412;0.0024;
287;0.3287;413;0.0026;
288;0.3322;414;0.0030;
289;0.3379;415;0.0034;
290;0.3473;416;0.0039;
291;0.3557;417;0.0042;
292;0.3660;418;0.0045;
293;0.3802;419;0.0048;
294;0.3923;420;0.0051;
295;0.4064;421;0.0055;
296;0.4249;422;0.0060;
297;0.4397;423;0.0064;
298;0.4565;424;0.0070;
299;0.4787;425;0.0077;
300;0.4959;426;0.0087;
301;0.5138;427;0.0097;
302;0.5359;428;0.0108;
303;0.5530;429;0.0120;
304;0.5710;430;0.0132;
305;0.5933;431;0.0146;
306;0.6104;432;0.0164;
307;0.6281;433;0.0184;
308;0.6492;434;0.0205;
309;0.6649;435;0.0226;
310;0.6817;436;0.0247;
311;0.7019;437;0.0268;
312;0.7168;438;0.0291;
313;0.7325;439;0.0319;
314;0.7518;440;0.0351;
315;0.7665;441;0.0392;
316;0.7822;442;0.0433;
317;0.8018;443;0.0477;
318;0.8164;444;0.0524;
319;0.8317;445;0.0574;
320;0.8503;446;0.0626;
321;0.8642;447;0.0683;
322;0.8788;448;0.0742;
323;0.8962;449;0.0805;
324;0.9092;450;0.0870;
325;0.9224;451;0.0938;
326;0.9382;452;0.1009;
327;0.9495;453;0.1084;
328;0.9603;454;0.1176;
329;0.9728;455;0.1258;
330;0.9809;456;0.1344;
331;0.9879;457;0.1433;
332;0.9948;458;0.1524;
333;0.9984;459;0.1638;
334;1.0000;460;0.1759;
335;0.9997;461;0.1886;
336;0.9983;462;0.1992;
337;0.9959;463;0.2122;
338;0.9904;464;0.2255;
339;0.9856;465;0.2368;
340;0.9796;466;0.2514;
341;0.9700;467;0.2639;
342;0.9623;468;0.2798;
343;0.9536;469;0.2934;
344;0.9413;470;0.3108;
345;0.9310;471;0.3254;
346;0.9201;472;0.3400;
347;0.9044;473;0.3545;
348;0.8919;474;0.3692;
349;0.8783;475;0.3844;
350;0.8596;476;0.4004;
351;0.8448;477;0.4170;
352;0.8289;478;0.4386;
353;0.8070;479;0.4558;
354;0.7899;480;0.4727;
355;0.7719;481;0.4896;
356;0.7475;482;0.5070;
357;0.7287;483;0.5194;
358;0.7090;484;0.5370;
359;0.6831;485;0.5538;
360;0.6638;486;0.5697;
361;0.6444;487;0.5852;
362;0.6188;488;0.6010;
363;0.5998;489;0.6177;
364;0.5800;490;0.6416;
365;0.5540;491;0.6587;
366;0.5347;492;0.6751;
367;0.5144;493;0.6908;
368;0.4878;494;0.7060;
369;0.4681;495;0.7213;
370;0.4479;496;0.7365;
371;0.4208;497;0.7513;
372;0.4014;498;0.7729;
373;0.3827;499;0.7851;
374;0.3599;500;0.7957;
375;0.3435;501;0.8054;
376;0.3272;502;0.8235;
377;0.3070;503;0.8340;
378;0.2923;504;0.8451;
379;0.2777;505;0.8563;
380;0.2596;506;0.8759;
381;0.2466;507;0.8858;
382;0.2338;508;0.8946;
383;0.2178;509;0.9110;
384;0.2063;510;0.9172;
385;0.1950;511;0.9228;
386;0.1809;512;0.9278;
387;0.1706;513;0.9420;
388;0.1602;514;0.9468;
389;0.1474;515;0.9513;
390;0.1381;516;0.9644;
391;0.1292;517;0.9668;
392;0.1181;518;0.9777;
393;0.1102;519;0.9786;
394;0.1025;520;0.9792;
395;0.0930;521;0.9890;
396;0.0865;522;0.9890;
397;0.0803;523;0.9884;
398;0.0732;524;0.9966;
399;0.0679;525;0.9942;
400;0.0628;526;1.0000;
401;0.0567;527;0.9954;
402;0.0525;528;0.9903;
403;0.0484;529;0.9941;
404;0.0434;530;0.9882;
405;0.0398;531;0.9910;
406;0.0363;532;0.9842;
407;0.0324;533;0.9865;
408;0.0294;534;0.9803;
409;0.0267;535;0.9748;
410;0.0238;536;0.9786;
411;0.0217;537;0.9726;
412;0.0197;538;0.9739;
413;0.0174;539;0.9645;
414;0.0159;540;0.9627;
415;0.0144;541;0.9524;
416;0.0126;542;0.9512;
417;0.0116;543;0.9423;
418;0.0105;544;0.9418;
419;0.0091;545;0.9328;
420;0.0082;546;0.9309;
421;0.0074;547;0.9198;
422;0.0065;548;0.9162;
423;0.0057;549;0.9049;
424;0.0051;550;0.9019;
425;0.0044;551;0.8913;
426;0.0039;552;0.8874;
427;0.0036;553;0.8751;
428;0.0030;554;0.8699;
429;0.0026;555;0.8574;
430;0.0024;556;0.8520;
431;0.0020;557;0.8462;
432;0.0017;558;0.8332;
433;0.0015;559;0.8275;
434;0.0013;560;0.8160;
435;0.0011;561;0.8122;
436;0.0010;562;0.8022;
437;0.0010;563;0.7977;
438;0.0008;564;0.7849;
439;0.0006;565;0.7765;
440;0.0005;566;0.7609;
441;0.0005;567;0.7515;
442;0.0003;568;0.7370;
443;0.0003;569;0.7291;
444;0.0002;570;0.7159;
445;0.0001;571;0.7081;
446;0.0002;572;0.6944;
447;0.0003;573;0.6806;
448;0.0002;574;0.6725;
449;0.0001;575;0.6597;
450;0.0001;576;0.6523;
;;577;0.6398;
;;578;0.6267;
;;579;0.6180;
;;580;0.6046;
;;581;0.5966;
;;582;0.5848;
;;583;0.5734;
;;584;0.5619;
;;585;0.5544;
;;586;0.5428;
;;587;0.5317;
;;588;0.5212;
;;589;0.5150;
;;590;0.5054;
;;591;0.4960;
;;592;0.4863;
;;593;0.4761;
;;594;0.4651;
;;595;0.4570;
;;596;0.4455;
;;597;0.4346;
;;598;0.4243;
;;599;0.4144;
;;600;0.4047;
;;601;0.3954;
;;602;0.3868;
;;603;0.3786;
;;604;0.3732;
;;605;0.3645;
;;606;0.3551;
;;607;0.3452;
;;608;0.3356;
;;609;0.3266;
;;610;0.3184;
;;611;0.3132;
;;612;0.3063;
;;613;0.2996;
;;614;0.2929;
;;615;0.2879;
;;616;0.2802;
;;617;0.2742;
;;618;0.2660;
;;619;0.2582;
;;620;0.2530;
;;621;0.2466;
;;622;0.2426;
;;623;0.2371;
;;624;0.2330;
;;625;0.2268;
;;626;0.2220;
;;627;0.2169;
;;628;0.2102;
;;629;0.2050;
;;630;0.2003;
;;631;0.1961;
;;632;0.1925;
;;633;0.1878;
;;634;0.1846;
;;635;0.1815;
;;636;0.1783;
;;637;0.1747;
;;638;0.1705;
;;639;0.1658;
;;640;0.1612;
;;641;0.1570;
;;642;0.1533;
;;643;0.1507;
;;644;0.1471;
;;645;0.1437;
;;646;0.1407;
;;647;0.1390;
;;648;0.1367;
;;649;0.1344;
;;650;0.1318;
;;651;0.1295;
;;652;0.1261;
;;653;0.1234;
;;654;0.1204;
;;655;0.1184;
;;656;0.1161;
;;657;0.1144;
;;658;0.1119;
;;659;0.1098;
;;660;0.1076;
;;661;0.1054;
;;662;0.1029;
;;663;0.1008;
;;664;0.0986;
;;665;0.0960;
;;666;0.0934;
;;667;0.0908;
;;668;0.0886;
;;669;0.0866;
;;670;0.0848;
;;671;0.0829;
;;672;0.0814;
;;673;0.0796;
