Exitation wavelength (nm);normalized Exitation;emission wavelength (nm);Normalized emission;
250;0.9234;480;0.0252;
251;0.9423;481;0.0134;
252;0.9572;482;0.0046;
253;0.9695;483;0.0020;
254;0.9830;484;0.0014;
255;0.9904;485;0.0014;
256;0.9959;486;0.0013;
257;0.9998;487;0.0012;
258;1.0000;488;0.0012;
259;0.9976;489;0.0012;
260;0.9899;490;0.0012;
261;0.9806;491;0.0015;
262;0.9683;492;0.0014;
263;0.9476;493;0.0015;
264;0.9306;494;0.0017;
265;0.9132;495;0.0017;
266;0.8880;496;0.0019;
267;0.8690;497;0.0019;
268;0.8499;498;0.0019;
269;0.8227;499;0.0022;
270;0.8021;500;0.0021;
271;0.7805;501;0.0025;
272;0.7491;502;0.0028;
273;0.7254;503;0.0030;
274;0.7011;504;0.0033;
275;0.6674;505;0.0041;
276;0.6427;506;0.0047;
277;0.6181;507;0.0054;
278;0.5843;508;0.0061;
279;0.5592;509;0.0073;
280;0.5335;510;0.0086;
281;0.4972;511;0.0106;
282;0.4697;512;0.0122;
283;0.4414;513;0.0150;
284;0.4017;514;0.0185;
285;0.3726;515;0.0220;
286;0.3428;516;0.0270;
287;0.3056;517;0.0322;
288;0.2794;518;0.0396;
289;0.2538;519;0.0485;
290;0.2222;520;0.0609;
291;0.1997;521;0.0775;
292;0.1775;522;0.0971;
293;0.1504;523;0.1242;
294;0.1319;524;0.1503;
295;0.1148;525;0.1818;
296;0.0955;526;0.2188;
297;0.0832;527;0.2581;
298;0.0717;528;0.3048;
299;0.0600;529;0.3558;
300;0.0531;530;0.4101;
301;0.0471;531;0.4632;
302;0.0412;532;0.5237;
303;0.0377;533;0.5834;
304;0.0348;534;0.6414;
305;0.0320;535;0.6962;
306;0.0303;536;0.7495;
307;0.0287;537;0.8048;
308;0.0274;538;0.8500;
309;0.0265;539;0.8941;
310;0.0257;540;0.9277;
311;0.0252;541;0.9550;
312;0.0247;542;0.9791;
313;0.0243;543;0.9925;
314;0.0240;544;1.0000;
315;0.0238;545;0.9976;
316;0.0236;546;0.9844;
317;0.0235;547;0.9749;
318;0.0233;548;0.9535;
319;0.0231;549;0.9288;
320;0.0228;550;0.9017;
321;0.0227;551;0.8745;
322;0.0226;552;0.8414;
323;0.0223;553;0.8052;
324;0.0221;554;0.7660;
325;0.0220;555;0.7345;
326;0.0219;556;0.6970;
327;0.0218;557;0.6620;
328;0.0217;558;0.6224;
329;0.0215;559;0.5906;
330;0.0212;560;0.5553;
331;0.0212;561;0.5304;
332;0.0210;562;0.5003;
333;0.0208;563;0.4794;
334;0.0205;564;0.4528;
335;0.0200;565;0.4322;
336;0.0200;566;0.4136;
337;0.0196;567;0.3976;
338;0.0191;568;0.3801;
339;0.0185;569;0.3664;
340;0.0179;570;0.3531;
341;0.0174;571;0.3438;
342;0.0169;572;0.3343;
343;0.0161;573;0.3244;
344;0.0156;574;0.3165;
345;0.0152;575;0.3068;
346;0.0147;576;0.3000;
347;0.0140;577;0.2970;
348;0.0137;578;0.2950;
349;0.0135;579;0.2866;
350;0.0131;580;0.2847;
351;0.0128;581;0.2769;
352;0.0125;582;0.2721;
353;0.0122;583;0.2699;
354;0.0117;584;0.2660;
355;0.0112;585;0.2606;
356;0.0106;586;0.2577;
357;0.0101;587;0.2490;
358;0.0097;588;0.2438;
359;0.0092;589;0.2375;
360;0.0088;590;0.2316;
361;0.0084;591;0.2279;
362;0.0081;592;0.2182;
363;0.0078;593;0.2115;
364;0.0075;594;0.2052;
365;0.0070;595;0.1978;
366;0.0068;596;0.1920;
367;0.0066;597;0.1849;
368;0.0064;598;0.1758;
369;0.0062;599;0.1710;
370;0.0061;600;0.1632;
371;0.0058;601;0.1560;
372;0.0057;602;0.1492;
373;0.0056;603;0.1404;
374;0.0054;604;0.1356;
375;0.0054;605;0.1270;
376;0.0052;606;0.1204;
377;0.0050;607;0.1149;
378;0.0047;608;0.1078;
379;0.0044;609;0.1016;
380;0.0041;610;0.0973;
381;0.0039;611;0.0917;
382;0.0037;612;0.0864;
383;0.0036;613;0.0821;
384;0.0035;614;0.0790;
385;0.0033;615;0.0756;
386;0.0030;616;0.0723;
387;0.0029;617;0.0704;
388;0.0028;618;0.0681;
389;0.0026;619;0.0653;
390;0.0026;620;0.0635;
391;0.0026;621;0.0605;
392;0.0024;622;0.0588;
393;0.0023;623;0.0559;
394;0.0022;624;0.0542;
395;0.0022;625;0.0542;
396;0.0022;626;0.0512;
397;0.0022;627;0.0485;
398;0.0020;628;0.0464;
399;0.0020;629;0.0464;
400;0.0020;630;0.0450;
401;0.0020;631;0.0432;
402;0.0020;632;0.0418;
403;0.0019;633;0.0412;
404;0.0019;634;0.0395;
405;0.0020;635;0.0386;
406;0.0020;636;0.0379;
407;0.0020;637;0.0371;
408;0.0019;638;0.0357;
409;0.0019;639;0.0352;
410;0.0019;640;0.0335;
411;0.0019;641;0.0338;
412;0.0019;642;0.0319;
413;0.0019;643;0.0307;
414;0.0018;644;0.0311;
415;0.0019;645;0.0297;
416;0.0020;646;0.0294;
417;0.0020;647;0.0271;
418;0.0021;648;0.0273;
419;0.0023;649;0.0259;
420;0.0024;650;0.0254;
421;0.0024;651;0.0250;
422;0.0025;652;0.0247;
423;0.0026;653;0.0225;
424;0.0027;654;0.0225;
425;0.0028;655;0.0218;
426;0.0029;656;0.0207;
427;0.0031;657;0.0205;
428;0.0032;658;0.0201;
429;0.0034;659;0.0192;
430;0.0035;660;0.0187;
431;0.0038;661;0.0179;
432;0.0038;662;0.0178;
433;0.0041;663;0.0164;
434;0.0044;664;0.0163;
435;0.0046;665;0.0168;
436;0.0048;666;0.0159;
437;0.0052;667;0.0152;
438;0.0054;668;0.0143;
439;0.0057;669;0.0143;
440;0.0060;670;0.0134;
441;0.0064;671;0.0134;
442;0.0066;672;0.0131;
443;0.0072;673;0.0121;
444;0.0076;674;0.0119;
445;0.0080;675;0.0117;
446;0.0087;;;
447;0.0092;;;
448;0.0098;;;
449;0.0106;;;
450;0.0112;;;
451;0.0120;;;
452;0.0128;;;
453;0.0137;;;
454;0.0147;;;
455;0.0159;;;
456;0.0168;;;
457;0.0180;;;
458;0.0195;;;
459;0.0207;;;
460;0.0219;;;
461;0.0234;;;
462;0.0247;;;
463;0.0259;;;
464;0.0274;;;
465;0.0286;;;
466;0.0298;;;
467;0.0314;;;
468;0.0325;;;
469;0.0338;;;
470;0.0354;;;
471;0.0367;;;
472;0.0382;;;
473;0.0402;;;
474;0.0421;;;
475;0.0442;;;
476;0.0471;;;
477;0.0496;;;
478;0.0525;;;
479;0.0565;;;
480;0.0600;;;
481;0.0637;;;
482;0.0689;;;
483;0.0732;;;
484;0.0778;;;
485;0.0840;;;
486;0.0892;;;
487;0.0947;;;
488;0.1020;;;
489;0.1080;;;
490;0.1140;;;
491;0.1217;;;
492;0.1276;;;
493;0.1331;;;
494;0.1394;;;
495;0.1438;;;
496;0.1471;;;
497;0.1504;;;
498;0.1521;;;
499;0.1531;;;
500;0.1536;;;
501;0.1533;;;
502;0.1528;;;
503;0.1522;;;
504;0.1518;;;
505;0.1519;;;
506;0.1528;;;
507;0.1543;;;
508;0.1567;;;
509;0.1612;;;
510;0.1659;;;
511;0.1714;;;
512;0.1797;;;
513;0.1872;;;
514;0.1951;;;
515;0.2065;;;
516;0.2165;;;
517;0.2266;;;
518;0.2415;;;
519;0.2550;;;
520;0.2690;;;
521;0.2900;;;
522;0.3077;;;
523;0.3258;;;
524;0.3508;;;
525;0.3696;;;
526;0.3863;;;
527;0.4049;;;
528;0.4149;;;
529;0.4204;;;
530;0.4207;;;
531;0.4153;;;
532;0.4058;;;
533;0.3873;;;
534;0.3694;;;
535;0.3497;;;
536;0.3202;;;
537;0.2974;;;
538;0.2742;;;
539;0.2424;;;
540;0.2201;;;
541;0.1988;;;
542;0.1715;;;
543;0.1531;;;
544;0.1359;;;
545;0.1144;;;
546;0.1002;;;
547;0.0872;;;
548;0.0715;;;
549;0.0615;;;
550;0.0528;;;
551;0.0424;;;
552;0.0361;;;
553;0.0308;;;
554;0.0247;;;
555;0.0210;;;
556;0.0179;;;
557;0.0145;;;
558;0.0124;;;
559;0.0106;;;
560;0.0087;;;
561;0.0075;;;
562;0.0065;;;
563;0.0054;;;
564;0.0048;;;
565;0.0043;;;
566;0.0037;;;
567;0.0034;;;
568;0.0030;;;
569;0.0026;;;
570;0.0024;;;
571;0.0022;;;
572;0.0019;;;
573;0.0017;;;
574;0.0015;;;
575;0.0013;;;
576;0.0012;;;
577;0.0011;;;
578;0.0009;;;
579;0.0008;;;
580;0.0007;;;
581;0.0007;;;
582;0.0006;;;
583;0.0006;;;
584;0.0006;;;
585;0.0006;;;
586;0.0006;;;
587;0.0007;;;
588;0.0007;;;
589;0.0007;;;
590;0.0006;;;
591;0.0006;;;
592;0.0004;;;
593;0.0004;;;
594;0.0003;;;
595;0.0003;;;
596;0.0003;;;
597;0.0003;;;
598;0.0002;;;
599;0.0001;;;
