Exitation wavelength (nm);normalized Exitation;emission wavelength (nm);Normalized emission;
250;0.4107;460;0.0223;
251;0.4026;461;0.0260;
252;0.3996;462;0.0311;
253;0.4023;463;0.0369;
254;0.4097;464;0.0448;
255;0.4220;465;0.0534;
256;0.4394;466;0.0632;
257;0.4608;467;0.0744;
258;0.4862;468;0.0866;
259;0.5148;469;0.1012;
260;0.5464;470;0.1188;
261;0.5801;471;0.1374;
262;0.6178;472;0.1571;
263;0.6560;473;0.1809;
264;0.6968;474;0.2064;
265;0.7396;475;0.2366;
266;0.7843;476;0.2688;
267;0.8290;477;0.2996;
268;0.8722;478;0.3344;
269;0.9120;479;0.3698;
270;0.9450;480;0.4070;
271;0.9718;481;0.4419;
272;0.9881;482;0.4797;
273;0.9971;483;0.5145;
274;1.0000;484;0.5531;
275;0.9951;485;0.5897;
276;0.9843;486;0.6262;
277;0.9702;487;0.6627;
278;0.9495;488;0.7011;
279;0.9239;489;0.7371;
280;0.8927;490;0.7693;
281;0.8545;491;0.7998;
282;0.8084;492;0.8284;
283;0.7594;493;0.8518;
284;0.7047;494;0.8780;
285;0.6485;495;0.9010;
286;0.5915;496;0.9214;
287;0.5382;497;0.9466;
288;0.4864;498;0.9620;
289;0.4404;499;0.9779;
290;0.3982;500;0.9903;
291;0.3631;501;0.9937;
292;0.3330;502;1.0000;
293;0.3058;503;0.9995;
294;0.2840;504;0.9970;
295;0.2661;505;0.9978;
296;0.2501;506;0.9934;
297;0.2366;507;0.9914;
298;0.2255;508;0.9825;
299;0.2161;509;0.9779;
300;0.2087;510;0.9712;
301;0.2019;511;0.9642;
302;0.1956;512;0.9561;
303;0.1908;513;0.9434;
304;0.1880;514;0.9376;
305;0.1832;515;0.9289;
306;0.1792;516;0.9209;
307;0.1777;517;0.9087;
308;0.1749;518;0.8987;
309;0.1720;519;0.8887;
310;0.1700;520;0.8795;
311;0.1678;521;0.8706;
312;0.1657;522;0.8596;
313;0.1636;523;0.8526;
314;0.1618;524;0.8411;
315;0.1600;525;0.8284;
316;0.1576;526;0.8165;
317;0.1558;527;0.8032;
318;0.1542;528;0.7934;
319;0.1519;529;0.7827;
320;0.1491;530;0.7704;
321;0.1467;531;0.7575;
322;0.1458;532;0.7420;
323;0.1423;533;0.7324;
324;0.1396;534;0.7205;
325;0.1391;535;0.7054;
326;0.1369;536;0.6935;
327;0.1341;537;0.6803;
328;0.1329;538;0.6665;
329;0.1300;539;0.6519;
330;0.1283;540;0.6395;
331;0.1266;541;0.6245;
332;0.1243;542;0.6110;
333;0.1221;543;0.5982;
334;0.1202;544;0.5861;
335;0.1180;545;0.5730;
336;0.1162;546;0.5605;
337;0.1147;547;0.5491;
338;0.1127;548;0.5345;
339;0.1128;549;0.5212;
340;0.1123;550;0.5100;
341;0.1105;551;0.4977;
342;0.1109;552;0.4873;
343;0.1104;553;0.4747;
344;0.1094;554;0.4620;
345;0.1082;555;0.4529;
346;0.1069;556;0.4437;
347;0.1046;557;0.4320;
348;0.1032;558;0.4215;
349;0.1007;559;0.4106;
350;0.0982;560;0.3990;
351;0.0973;561;0.3899;
352;0.0961;562;0.3795;
353;0.0948;563;0.3693;
354;0.0946;564;0.3626;
355;0.0949;565;0.3515;
356;0.0942;566;0.3441;
357;0.0941;567;0.3356;
358;0.0961;568;0.3256;
359;0.0952;569;0.3196;
360;0.0952;570;0.3112;
361;0.0962;571;0.3034;
362;0.0965;572;0.2941;
363;0.0968;573;0.2865;
364;0.0970;574;0.2776;
365;0.0973;575;0.2712;
366;0.0978;576;0.2624;
367;0.0984;577;0.2537;
368;0.0986;578;0.2482;
369;0.1000;579;0.2423;
370;0.1009;580;0.2360;
371;0.1014;581;0.2306;
372;0.1028;582;0.2238;
373;0.1047;583;0.2183;
374;0.1050;584;0.2132;
375;0.1070;585;0.2082;
376;0.1090;586;0.2014;
377;0.1100;587;0.1953;
378;0.1118;588;0.1910;
379;0.1136;589;0.1863;
380;0.1153;590;0.1806;
381;0.1175;591;0.1756;
382;0.1192;592;0.1706;
383;0.1204;593;0.1658;
384;0.1232;594;0.1620;
385;0.1259;595;0.1574;
386;0.1284;596;0.1523;
387;0.1308;597;0.1493;
388;0.1336;598;0.1442;
389;0.1363;599;0.1407;
390;0.1396;600;0.1370;
391;0.1427;601;0.1323;
392;0.1466;602;0.1296;
393;0.1502;603;0.1260;
394;0.1539;604;0.1223;
395;0.1582;605;0.1183;
396;0.1632;606;0.1154;
397;0.1680;607;0.1114;
398;0.1730;608;0.1088;
399;0.1785;609;0.1050;
400;0.1847;610;0.1034;
401;0.1905;611;0.1002;
402;0.1970;612;0.0965;
403;0.2036;613;0.0936;
404;0.2113;614;0.0913;
405;0.2182;615;0.0893;
406;0.2260;616;0.0880;
407;0.2343;617;0.0850;
408;0.2427;618;0.0831;
409;0.2512;619;0.0801;
410;0.2600;620;0.0772;
411;0.2694;621;0.0747;
412;0.2782;622;0.0729;
413;0.2878;623;0.0712;
414;0.2970;624;0.0691;
415;0.3068;625;0.0676;
416;0.3167;626;0.0662;
417;0.3261;627;0.0634;
418;0.3362;628;0.0611;
419;0.3460;629;0.0586;
420;0.3560;630;0.0570;
421;0.3646;631;0.0556;
422;0.3744;632;0.0536;
423;0.3845;633;0.0525;
424;0.3946;634;0.0492;
425;0.4036;635;0.0491;
426;0.4125;636;0.0477;
427;0.4231;637;0.0459;
428;0.4319;638;0.0446;
429;0.4416;639;0.0430;
430;0.4519;640;0.0415;
431;0.4614;641;0.0408;
432;0.4715;642;0.0403;
433;0.4814;643;0.0394;
434;0.4912;644;0.0380;
435;0.5010;645;0.0371;
436;0.5102;646;0.0367;
437;0.5195;647;0.0349;
438;0.5282;648;0.0344;
439;0.5363;649;0.0336;
440;0.5433;650;0.0328;
441;0.5498;;;
442;0.5561;;;
443;0.5603;;;
444;0.5636;;;
445;0.5669;;;
446;0.5679;;;
447;0.5681;;;
448;0.5673;;;
449;0.5660;;;
450;0.5635;;;
451;0.5603;;;
452;0.5558;;;
453;0.5518;;;
454;0.5467;;;
455;0.5409;;;
456;0.5351;;;
457;0.5297;;;
458;0.5230;;;
459;0.5167;;;
460;0.5118;;;
461;0.5055;;;
462;0.4998;;;
463;0.4939;;;
464;0.4879;;;
465;0.4822;;;
466;0.4769;;;
467;0.4699;;;
468;0.4637;;;
469;0.4568;;;
470;0.4492;;;
471;0.4412;;;
472;0.4330;;;
473;0.4235;;;
474;0.4134;;;
475;0.4035;;;
476;0.3915;;;
477;0.3803;;;
478;0.3676;;;
479;0.3543;;;
480;0.3414;;;
481;0.3278;;;
482;0.3139;;;
483;0.3008;;;
484;0.2868;;;
485;0.2727;;;
486;0.2592;;;
487;0.2461;;;
488;0.2327;;;
489;0.2196;;;
490;0.2075;;;
491;0.1950;;;
492;0.1833;;;
493;0.1724;;;
494;0.1616;;;
495;0.1515;;;
496;0.1421;;;
497;0.1330;;;
498;0.1246;;;
499;0.1166;;;
500;0.1089;;;
501;0.1024;;;
502;0.0957;;;
503;0.0895;;;
504;0.0841;;;
505;0.0790;;;
506;0.0742;;;
507;0.0696;;;
508;0.0654;;;
509;0.0615;;;
510;0.0584;;;
511;0.0552;;;
512;0.0522;;;
513;0.0495;;;
514;0.0475;;;
515;0.0450;;;
516;0.0430;;;
517;0.0414;;;
518;0.0392;;;
519;0.0374;;;
520;0.0364;;;
521;0.0352;;;
522;0.0335;;;
523;0.0325;;;
524;0.0316;;;
525;0.0306;;;
526;0.0294;;;
527;0.0286;;;
528;0.0278;;;
529;0.0268;;;
530;0.0261;;;
531;0.0255;;;
532;0.0246;;;
533;0.0238;;;
534;0.0232;;;
535;0.0228;;;
536;0.0219;;;
537;0.0214;;;
538;0.0204;;;
539;0.0203;;;
540;0.0199;;;
541;0.0191;;;
542;0.0184;;;
543;0.0181;;;
544;0.0177;;;
545;0.0168;;;
546;0.0162;;;
547;0.0158;;;
548;0.0150;;;
549;0.0145;;;
550;0.0147;;;
551;0.0141;;;
552;0.0129;;;
553;0.0128;;;
554;0.0120;;;
555;0.0116;;;
556;0.0111;;;
557;0.0108;;;
558;0.0102;;;
559;0.0101;;;
560;0.0094;;;
561;0.0095;;;
562;0.0092;;;
563;0.0088;;;
564;0.0084;;;
565;0.0082;;;
566;0.0078;;;
567;0.0075;;;
568;0.0072;;;
569;0.0068;;;
570;0.0067;;;
571;0.0059;;;
572;0.0061;;;
573;0.0056;;;
574;0.0056;;;
575;0.0049;;;
576;0.0049;;;
577;0.0044;;;
578;0.0044;;;
579;0.0042;;;
580;0.0038;;;
581;0.0038;;;
582;0.0039;;;
583;0.0034;;;
584;0.0035;;;
585;0.0032;;;
586;0.0029;;;
587;0.0030;;;
588;0.0028;;;
589;0.0026;;;
590;0.0025;;;
591;0.0024;;;
592;0.0021;;;
593;0.0022;;;
594;0.0021;;;
595;0.0021;;;
596;0.0021;;;
597;0.0019;;;
598;0.0018;;;
599;0.0020;;;
600;0.0018;;;
601;0.0016;;;
602;0.0015;;;
603;0.0014;;;
604;0.0016;;;
605;0.0016;;;
606;0.0010;;;
607;0.0012;;;
608;0.0012;;;
609;0.0009;;;
610;0.0010;;;
611;0.0010;;;
612;0.0011;;;
613;0.0010;;;
614;0.0013;;;
615;0.0008;;;
616;0.0012;;;
617;0.0007;;;
618;0.0008;;;
619;0.0007;;;
620;0.0006;;;
621;0.0008;;;
622;0.0008;;;
623;0.0010;;;
624;0.0009;;;
625;0.0007;;;
626;0.0010;;;
627;0.0008;;;
628;0.0006;;;
629;0.0008;;;
630;0.0006;;;
631;0.0007;;;
632;0.0009;;;
633;0.0008;;;
634;0.0006;;;
635;0.0007;;;
636;0.0008;;;
637;0.0005;;;
638;0.0011;;;
639;0.0006;;;
640;0.0007;;;
641;0.0008;;;
642;0.0010;;;
643;0.0009;;;
644;0.0005;;;
645;0.0008;;;
646;0.0008;;;
647;0.0006;;;
648;0.0008;;;
649;0.0005;;;
