Absorption wavelength (nm);normalized Absorption;emission wavelength (nm);Normalized emission;
300;0.1064;478;0.0127;
301;0.1035;479;0.0133;
302;0.1008;480;0.0156;
303;0.0984;481;0.0188;
304;0.0961;482;0.0230;
305;0.0947;483;0.0286;
306;0.0939;484;0.0360;
307;0.0933;485;0.0453;
308;0.0934;486;0.0564;
309;0.0936;487;0.0695;
310;0.0949;488;0.0848;
311;0.0961;489;0.1024;
312;0.0975;490;0.1227;
313;0.0994;491;0.1458;
314;0.1024;492;0.1719;
315;0.1060;493;0.2009;
316;0.1090;494;0.2336;
317;0.1121;495;0.2701;
318;0.1163;496;0.3104;
319;0.1205;497;0.3535;
320;0.1238;498;0.3982;
321;0.1258;499;0.4448;
322;0.1277;500;0.4940;
323;0.1286;501;0.5457;
324;0.1280;502;0.5985;
325;0.1265;503;0.6506;
326;0.1246;504;0.7000;
327;0.1223;505;0.7466;
328;0.1193;506;0.7907;
329;0.1152;507;0.8326;
330;0.1112;508;0.8720;
331;0.1076;509;0.9064;
332;0.1033;510;0.9341;
333;0.0989;511;0.9549;
334;0.0931;512;0.9710;
335;0.0884;513;0.9840;
336;0.0842;514;0.9944;
337;0.0795;515;0.9994;
338;0.0748;516;0.9992;
339;0.0694;517;0.9951;
340;0.0651;518;0.9883;
341;0.0614;519;0.9795;
342;0.0575;520;0.9673;
343;0.0539;521;0.9511;
344;0.0497;522;0.9315;
345;0.0465;523;0.9094;
346;0.0439;524;0.8866;
347;0.0414;525;0.8626;
348;0.0389;526;0.8373;
349;0.0368;527;0.8110;
350;0.0349;528;0.7827;
351;0.0335;529;0.7547;
352;0.0319;530;0.7271;
353;0.0310;531;0.7015;
354;0.0301;532;0.6774;
355;0.0289;533;0.6532;
356;0.0285;534;0.6296;
357;0.0279;535;0.6053;
358;0.0274;536;0.5823;
359;0.0268;537;0.5610;
360;0.0264;538;0.5411;
361;0.0264;539;0.5225;
362;0.0262;540;0.5044;
363;0.0261;541;0.4865;
364;0.0255;542;0.4691;
365;0.0257;543;0.4524;
366;0.0258;544;0.4368;
367;0.0259;545;0.4220;
368;0.0259;546;0.4079;
369;0.0257;547;0.3940;
370;0.0260;548;0.3810;
371;0.0261;549;0.3688;
372;0.0262;550;0.3574;
373;0.0261;551;0.3464;
374;0.0263;552;0.3352;
375;0.0267;553;0.3241;
376;0.0268;554;0.3130;
377;0.0270;555;0.3026;
378;0.0270;556;0.2928;
379;0.0268;557;0.2837;
380;0.0270;558;0.2752;
381;0.0272;559;0.2670;
382;0.0271;560;0.2587;
383;0.0270;561;0.2505;
384;0.0270;562;0.2422;
385;0.0268;563;0.2339;
386;0.0268;564;0.2254;
387;0.0266;565;0.2173;
388;0.0264;566;0.2095;
389;0.0262;567;0.2018;
390;0.0263;568;0.1943;
391;0.0261;569;0.1868;
392;0.0259;570;0.1794;
393;0.0257;571;0.1725;
394;0.0257;572;0.1659;
395;0.0257;573;0.1595;
396;0.0255;574;0.1534;
397;0.0255;575;0.1471;
398;0.0257;576;0.1411;
399;0.0256;577;0.1355;
400;0.0258;578;0.1306;
401;0.0258;579;0.1259;
402;0.0260;580;0.1211;
403;0.0261;581;0.1165;
404;0.0263;582;0.1119;
405;0.0265;583;0.1078;
406;0.0266;584;0.1040;
407;0.0267;585;0.1003;
408;0.0272;586;0.0966;
409;0.0275;587;0.0927;
410;0.0278;588;0.0888;
411;0.0286;589;0.0853;
412;0.0291;590;0.0822;
413;0.0297;591;0.0792;
414;0.0308;592;0.0763;
415;0.0315;593;0.0734;
416;0.0328;594;0.0708;
417;0.0341;595;0.0684;
418;0.0353;596;0.0658;
419;0.0371;597;0.0631;
420;0.0387;598;0.0604;
421;0.0407;599;0.0580;
422;0.0431;600;0.0559;
423;0.0452;601;0.0540;
424;0.0474;602;0.0522;
425;0.0499;603;0.0504;
426;0.0528;604;0.0485;
427;0.0559;605;0.0467;
428;0.0588;606;0.0450;
429;0.0619;607;0.0434;
430;0.0650;608;0.0418;
431;0.0683;609;0.0403;
432;0.0724;610;0.0387;
433;0.0762;611;0.0373;
434;0.0795;612;0.0360;
435;0.0834;613;0.0348;
436;0.0872;614;0.0334;
437;0.0915;615;0.0320;
438;0.0963;616;0.0306;
439;0.1008;617;0.0294;
440;0.1051;618;0.0282;
441;0.1102;619;0.0270;
442;0.1168;620;0.0257;
443;0.1235;621;0.0245;
444;0.1304;622;0.0234;
445;0.1374;623;0.0225;
446;0.1456;624;0.0215;
447;0.1548;625;0.0206;
448;0.1666;626;0.0198;
449;0.1774;627;0.0190;
450;0.1876;628;0.0183;
451;0.1994;629;0.0175;
452;0.2119;630;0.0168;
453;0.2264;631;0.0162;
454;0.2403;632;0.0156;
455;0.2529;633;0.0150;
456;0.2656;634;0.0144;
457;0.2787;635;0.0138;
458;0.2923;636;0.0132;
459;0.3075;637;0.0127;
460;0.3199;638;0.0122;
461;0.3300;639;0.0117;
462;0.3402;640;0.0111;
463;0.3506;641;0.0106;
464;0.3612;642;0.0102;
465;0.3712;643;0.0097;
466;0.3800;644;0.0094;
467;0.3881;645;0.0090;
468;0.3977;646;0.0087;
469;0.4071;647;0.0085;
470;0.4196;648;0.0082;
471;0.4316;649;0.0080;
472;0.4439;650;0.0077;
473;0.4594;651;0.0074;
474;0.4762;652;0.0072;
475;0.4975;653;0.0069;
476;0.5221;654;0.0066;
477;0.5469;655;0.0064;
478;0.5728;656;0.0061;
479;0.6014;657;0.0059;
480;0.6330;658;0.0057;
481;0.6724;659;0.0055;
482;0.7089;660;0.0053;
483;0.7411;661;0.0051;
484;0.7784;662;0.0050;
485;0.8134;663;0.0048;
486;0.8464;664;0.0047;
487;0.8867;665;0.0046;
488;0.9175;666;0.0044;
489;0.9417;667;0.0042;
490;0.9635;668;0.0040;
491;0.9825;669;0.0040;
492;0.9961;670;0.0038;
493;1.0000;671;0.0037;
494;0.9973;672;0.0036;
495;0.9888;673;0.0035;
496;0.9721;674;0.0034;
497;0.9455;675;0.0033;
498;0.9109;676;0.0032;
499;0.8749;677;0.0031;
500;0.8331;678;0.0030;
501;0.7834;679;0.0029;
502;0.7306;680;0.0028;
503;0.6697;681;0.0027;
504;0.6080;682;0.0026;
505;0.5517;683;0.0025;
506;0.5004;684;0.0025;
507;0.4486;685;0.0024;
508;0.3994;686;0.0023;
509;0.3460;687;0.0022;
510;0.3035;688;0.0021;
511;0.2691;689;0.0020;
512;0.2331;690;0.0020;
513;0.2024;691;0.0020;
514;0.1721;692;0.0019;
515;0.1450;693;0.0019;
516;0.1232;694;0.0018;
517;0.1067;695;0.0017;
518;0.0914;696;0.0017;
519;0.0783;697;0.0016;
520;0.0664;698;0.0016;
521;0.0559;699;0.0015;
522;0.0481;700;0.0015;
523;0.0415;701;0.0015;
524;0.0355;702;0.0014;
525;0.0303;703;0.0014;
526;0.0254;704;0.0013;
527;0.0216;705;0.0013;
528;0.0187;706;0.0012;
529;0.0164;707;0.0012;
530;0.0144;708;0.0012;
531;0.0126;709;0.0012;
532;0.0108;710;0.0011;
533;0.0096;711;0.0011;
534;0.0088;712;0.0011;
535;0.0080;713;0.0011;
536;0.0073;714;0.0010;
537;0.0066;715;0.0010;
538;0.0062;716;0.0010;
539;0.0059;717;0.0010;
540;0.0056;718;0.0010;
541;0.0053;719;0.0010;
542;0.0051;720;0.0009;
543;0.0047;721;0.0009;
544;0.0046;722;0.0009;
545;0.0042;723;0.0008;
546;0.0041;724;0.0008;
547;0.0041;725;0.0008;
548;0.0039;726;0.0008;
549;0.0037;727;0.0008;
550;0.0038;728;0.0008;
551;0.0036;729;0.0007;
552;0.0035;730;0.0007;
553;0.0035;731;0.0007;
554;0.0034;732;0.0006;
555;0.0034;733;0.0006;
556;0.0032;734;0.0006;
557;0.0032;735;0.0006;
558;0.0029;736;0.0006;
559;0.0030;737;0.0006;
560;0.0030;738;0.0006;
561;0.0029;739;0.0006;
562;0.0028;740;0.0006;
563;0.0028;741;0.0006;
564;0.0027;742;0.0006;
565;0.0027;743;0.0005;
566;0.0025;744;0.0005;
567;0.0025;745;0.0005;
568;0.0024;746;0.0005;
569;0.0023;747;0.0005;
570;0.0024;748;0.0005;
571;0.0022;749;0.0004;
572;0.0022;750;0.0004;
573;0.0021;751;0.0004;
574;0.0020;752;0.0004;
575;0.0018;753;0.0004;
576;0.0018;754;0.0004;
577;0.0019;755;0.0004;
578;0.0018;756;0.0004;
579;0.0017;757;0.0004;
580;0.0020;758;0.0004;
581;0.0020;759;0.0004;
582;0.0017;760;0.0004;
583;0.0018;761;0.0004;
584;0.0017;762;0.0004;
585;0.0016;763;0.0004;
586;0.0017;764;0.0004;
587;0.0017;765;0.0004;
588;0.0015;766;0.0004;
589;0.0015;767;0.0004;
590;0.0016;768;0.0004;
591;0.0018;769;0.0004;
592;0.0017;770;0.0003;
593;0.0016;771;0.0003;
594;0.0017;772;0.0004;
595;0.0018;773;0.0004;
596;0.0015;774;0.0004;
597;0.0016;775;0.0003;
598;0.0016;776;0.0003;
599;0.0014;777;0.0003;
600;0.0015;778;0.0003;
601;0.0016;779;0.0003;
602;0.0016;780;0.0003;
603;0.0015;781;0.0003;
604;0.0015;782;0.0003;
605;0.0017;783;0.0003;
606;0.0016;784;0.0003;
607;0.0016;785;0.0003;
608;0.0016;786;0.0003;
609;0.0014;787;0.0003;
610;0.0018;788;0.0003;
611;0.0013;789;0.0003;
612;0.0016;790;0.0003;
613;0.0014;791;0.0003;
614;0.0016;792;0.0003;
615;0.0014;793;0.0003;
616;0.0014;794;0.0003;
617;0.0012;795;0.0003;
618;0.0016;796;0.0003;
619;0.0014;797;0.0003;
620;0.0016;798;0.0003;
621;0.0016;799;0.0003;
622;0.0018;800;0.0003;
623;0.0015;;;
624;0.0012;;;
625;0.0013;;;
626;0.0015;;;
627;0.0015;;;
628;0.0013;;;
629;0.0016;;;
630;0.0013;;;
631;0.0014;;;
632;0.0016;;;
633;0.0012;;;
634;0.0013;;;
635;0.0016;;;
636;0.0017;;;
637;0.0012;;;
638;0.0016;;;
639;0.0017;;;
640;0.0014;;;
641;0.0015;;;
642;0.0015;;;
643;0.0015;;;
644;0.0014;;;
645;0.0012;;;
646;0.0014;;;
647;0.0014;;;
648;0.0015;;;
649;0.0013;;;
650;0.0013;;;
651;0.0014;;;
652;0.0014;;;
653;0.0012;;;
654;0.0013;;;
655;0.0013;;;
656;0.0015;;;
657;0.0012;;;
658;0.0014;;;
659;0.0012;;;
660;0.0014;;;
661;0.0015;;;
662;0.0011;;;
663;0.0014;;;
664;0.0013;;;
665;0.0013;;;
666;0.0012;;;
667;0.0010;;;
668;0.0014;;;
669;0.0013;;;
670;0.0015;;;
671;0.0012;;;
672;0.0010;;;
673;0.0015;;;
674;0.0015;;;
675;0.0010;;;
676;0.0013;;;
677;0.0011;;;
678;0.0011;;;
679;0.0013;;;
680;0.0011;;;
681;0.0013;;;
682;0.0014;;;
683;0.0011;;;
684;0.0012;;;
685;0.0007;;;
686;0.0013;;;
687;0.0012;;;
688;0.0014;;;
689;0.0012;;;
690;0.0011;;;
691;0.0012;;;
692;0.0011;;;
693;0.0013;;;
694;0.0014;;;
695;0.0011;;;
696;0.0012;;;
697;0.0011;;;
698;0.0011;;;
699;0.0010;;;
700;0.0012;;;
701;0.0011;;;
702;0.0010;;;
703;0.0010;;;
704;0.0009;;;
705;0.0010;;;
706;0.0010;;;
707;0.0009;;;
708;0.0012;;;
709;0.0010;;;
710;0.0010;;;
711;0.0009;;;
712;0.0011;;;
713;0.0010;;;
714;0.0010;;;
715;0.0007;;;
716;0.0012;;;
717;0.0010;;;
718;0.0009;;;
719;0.0006;;;
720;0.0007;;;
721;0.0009;;;
722;0.0006;;;
723;0.0010;;;
724;0.0012;;;
725;0.0008;;;
726;0.0009;;;
727;0.0010;;;
728;0.0009;;;
729;0.0011;;;
730;0.0008;;;
731;0.0012;;;
732;0.0007;;;
733;0.0006;;;
734;0.0008;;;
735;0.0010;;;
736;0.0006;;;
737;0.0010;;;
738;0.0011;;;
739;0.0004;;;
740;0.0008;;;
741;0.0011;;;
742;0.0007;;;
743;0.0010;;;
744;0.0004;;;
745;0.0010;;;
746;0.0009;;;
747;0.0006;;;
748;0.0009;;;
749;0.0009;;;
750;0.0012;;;
751;0.0007;;;
752;0.0006;;;
753;0.0002;;;
754;0.0004;;;
755;0.0007;;;
756;0.0000;;;
757;0.0005;;;
758;0.0008;;;
759;0.0013;;;
760;0.0000;;;
761;0.0003;;;
762;0.0006;;;
763;0.0006;;;
764;0.0011;;;
765;0.0010;;;
766;0.0006;;;
767;0.0006;;;
768;0.0006;;;
769;0.0005;;;
770;0.0005;;;
771;0.0008;;;
772;0.0008;;;
773;0.0007;;;
774;0.0000;;;
775;0.0008;;;
776;0.0001;;;
777;0.0002;;;
778;0.0005;;;
779;0.0004;;;
780;0.0008;;;
781;0.0009;;;
782;0.0006;;;
783;0.0000;;;
784;0.0010;;;
785;0.0006;;;
786;0.0005;;;
787;0.0001;;;
788;0.0004;;;
789;0.0004;;;
790;0.0006;;;
791;0.0006;;;
792;0.0000;;;
793;0.0002;;;
794;0.0003;;;
795;0.0002;;;
796;0.0003;;;
797;0.0002;;;
798;-0.0001;;;
799;0.0005;;;
