Absorption wavelength (nm);normalized Absorption;emission wavelength (nm);Normalized emission;
220;0.7060;420;0.0006;
221;0.7088;421;0.0006;
222;0.7024;422;0.0006;
223;0.7069;423;0.0006;
224;0.7073;424;0.0008;
225;0.7119;425;0.0009;
226;0.7077;426;0.0010;
227;0.7116;427;0.0011;
228;0.7081;428;0.0010;
229;0.7009;429;0.0011;
230;0.6972;430;0.0009;
231;0.6874;431;0.0008;
232;0.6771;432;0.0009;
233;0.6601;433;0.0010;
234;0.6447;434;0.0012;
235;0.6201;435;0.0013;
236;0.5844;436;0.0013;
237;0.5457;437;0.0011;
238;0.5006;438;0.0008;
239;0.4474;439;0.0006;
240;0.3932;440;0.0005;
241;0.3385;441;0.0005;
242;0.2899;442;0.0006;
243;0.2453;443;0.0006;
244;0.2099;444;0.0006;
245;0.1795;445;0.0006;
246;0.1564;446;0.0006;
247;0.1409;447;0.0006;
248;0.1283;448;0.0007;
249;0.1192;449;0.0008;
250;0.1145;450;0.0008;
251;0.1097;451;0.0009;
252;0.1084;452;0.0009;
253;0.1061;453;0.0010;
254;0.1069;454;0.0012;
255;0.1080;455;0.0014;
256;0.1067;456;0.0015;
257;0.1093;457;0.0019;
258;0.1083;458;0.0023;
259;0.1106;459;0.0027;
260;0.1099;460;0.0033;
261;0.1123;461;0.0040;
262;0.1116;462;0.0053;
263;0.1104;463;0.0071;
264;0.1097;464;0.0091;
265;0.1086;465;0.0112;
266;0.1085;466;0.0127;
267;0.1060;467;0.0134;
268;0.1040;468;0.0140;
269;0.1015;469;0.0148;
270;0.0991;470;0.0167;
271;0.0959;471;0.0196;
272;0.0926;472;0.0227;
273;0.0895;473;0.0272;
274;0.0892;474;0.0325;
275;0.0876;475;0.0387;
276;0.0856;476;0.0449;
277;0.0856;477;0.0529;
278;0.0832;478;0.0617;
279;0.0815;479;0.0732;
280;0.0795;480;0.0852;
281;0.0788;481;0.0984;
282;0.0801;482;0.1143;
283;0.0769;483;0.1322;
284;0.0787;484;0.1508;
285;0.0777;485;0.1710;
286;0.0774;486;0.1906;
287;0.0774;487;0.2136;
288;0.0803;488;0.2365;
289;0.0801;489;0.2608;
290;0.0823;490;0.2872;
291;0.0844;491;0.3152;
292;0.0867;492;0.3436;
293;0.0909;493;0.3720;
294;0.0945;494;0.3998;
295;0.0966;495;0.4321;
296;0.1011;496;0.4623;
297;0.1060;497;0.4925;
298;0.1132;498;0.5219;
299;0.1186;499;0.5534;
300;0.1261;500;0.5842;
301;0.1358;501;0.6127;
302;0.1410;502;0.6455;
303;0.1521;503;0.6730;
304;0.1620;504;0.7036;
305;0.1723;505;0.7272;
306;0.1826;506;0.7535;
307;0.1931;507;0.7783;
308;0.2064;508;0.7977;
309;0.2176;509;0.8188;
310;0.2218;510;0.8366;
311;0.2333;511;0.8547;
312;0.2444;512;0.8722;
313;0.2555;513;0.8874;
314;0.2664;514;0.9032;
315;0.2855;515;0.9147;
316;0.2980;516;0.9281;
317;0.3073;517;0.9378;
318;0.3102;518;0.9480;
319;0.3284;519;0.9574;
320;0.3421;520;0.9657;
321;0.3435;521;0.9732;
322;0.3554;522;0.9796;
323;0.3615;523;0.9867;
324;0.3618;524;0.9910;
325;0.3725;525;0.9914;
326;0.3796;526;0.9962;
327;0.3821;527;0.9991;
328;0.3880;528;0.9994;
329;0.3817;529;1.0000;
330;0.3840;530;0.9992;
331;0.3783;531;0.9934;
332;0.3764;532;0.9938;
333;0.3680;533;0.9916;
334;0.3620;534;0.9876;
335;0.3629;535;0.9840;
336;0.3388;536;0.9825;
337;0.3356;537;0.9767;
338;0.3233;538;0.9686;
339;0.3096;539;0.9651;
340;0.2957;540;0.9562;
341;0.2831;541;0.9494;
342;0.2676;542;0.9436;
343;0.2534;543;0.9339;
344;0.2356;544;0.9255;
345;0.2201;545;0.9170;
346;0.2066;546;0.9072;
347;0.1977;547;0.8994;
348;0.1817;548;0.8889;
349;0.1709;549;0.8769;
350;0.1548;550;0.8670;
351;0.1440;551;0.8570;
352;0.1320;552;0.8484;
353;0.1223;553;0.8319;
354;0.1125;554;0.8202;
355;0.1033;555;0.8079;
356;0.0920;556;0.7952;
357;0.0865;557;0.7853;
358;0.0783;558;0.7757;
359;0.0723;559;0.7630;
360;0.0660;560;0.7535;
361;0.0580;561;0.7397;
362;0.0566;562;0.7276;
363;0.0551;563;0.7145;
364;0.0489;564;0.7034;
365;0.0481;565;0.6912;
366;0.0465;566;0.6800;
367;0.0434;567;0.6697;
368;0.0422;568;0.6561;
369;0.0405;569;0.6440;
370;0.0386;570;0.6322;
371;0.0423;571;0.6207;
372;0.0395;572;0.6110;
373;0.0403;573;0.5990;
374;0.0405;574;0.5864;
375;0.0406;575;0.5759;
376;0.0447;576;0.5642;
377;0.0451;577;0.5513;
378;0.0477;578;0.5430;
379;0.0492;579;0.5270;
380;0.0553;580;0.5169;
381;0.0566;581;0.5077;
382;0.0574;582;0.4974;
383;0.0616;583;0.4882;
384;0.0653;584;0.4771;
385;0.0704;585;0.4698;
386;0.0751;586;0.4599;
387;0.0791;587;0.4482;
388;0.0874;588;0.4402;
389;0.0892;589;0.4272;
390;0.0950;590;0.4195;
391;0.1020;591;0.4089;
392;0.1047;592;0.4033;
393;0.1122;593;0.3936;
394;0.1192;594;0.3854;
395;0.1259;595;0.3750;
396;0.1366;596;0.3682;
397;0.1425;597;0.3605;
398;0.1502;598;0.3510;
399;0.1586;599;0.3420;
400;0.1665;600;0.3351;
401;0.1768;601;0.3254;
402;0.1838;602;0.3194;
403;0.1951;603;0.3112;
404;0.2046;604;0.3020;
405;0.2132;605;0.2960;
406;0.2288;606;0.2905;
407;0.2374;607;0.2830;
408;0.2492;608;0.2780;
409;0.2610;609;0.2712;
410;0.2743;610;0.2649;
411;0.2857;611;0.2594;
412;0.3007;612;0.2513;
413;0.3149;613;0.2453;
414;0.3313;614;0.2395;
415;0.3397;615;0.2335;
416;0.3580;616;0.2293;
417;0.3737;617;0.2238;
418;0.3900;618;0.2168;
419;0.4061;619;0.2122;
420;0.4240;620;0.2081;
421;0.4413;621;0.2032;
422;0.4580;622;0.1972;
423;0.4788;623;0.1922;
424;0.4967;624;0.1877;
425;0.5155;625;0.1821;
426;0.5351;626;0.1776;
427;0.5504;627;0.1722;
428;0.5688;628;0.1672;
429;0.5882;629;0.1653;
430;0.6061;630;0.1621;
431;0.6261;631;0.1586;
432;0.6442;632;0.1530;
433;0.6657;633;0.1491;
434;0.6822;634;0.1460;
435;0.7012;635;0.1423;
436;0.7259;636;0.1374;
437;0.7461;637;0.1345;
438;0.7613;638;0.1317;
439;0.7807;639;0.1280;
440;0.8014;640;0.1256;
441;0.8138;641;0.1207;
442;0.8286;642;0.1204;
443;0.8473;643;0.1162;
444;0.8624;644;0.1138;
445;0.8762;645;0.1121;
446;0.8932;646;0.1071;
447;0.9056;647;0.1048;
448;0.9241;648;0.1036;
449;0.9320;649;0.1000;
450;0.9424;650;0.0974;
451;0.9566;651;0.0944;
452;0.9649;652;0.0921;
453;0.9717;653;0.0881;
454;0.9797;654;0.0881;
455;0.9830;655;0.0858;
456;0.9922;656;0.0838;
457;0.9950;657;0.0810;
458;0.9972;658;0.0798;
459;1.0000;659;0.0775;
460;0.9987;660;0.0757;
461;0.9984;661;0.0739;
462;0.9941;662;0.0719;
463;0.9916;663;0.0691;
464;0.9862;664;0.0682;
465;0.9809;665;0.0668;
466;0.9767;666;0.0642;
467;0.9640;667;0.0627;
468;0.9578;668;0.0615;
469;0.9470;669;0.0600;
470;0.9359;670;0.0577;
471;0.9226;671;0.0585;
472;0.9052;672;0.0556;
473;0.8902;673;0.0540;
474;0.8741;674;0.0528;
475;0.8497;675;0.0518;
476;0.8264;676;0.0505;
477;0.8046;677;0.0484;
478;0.7816;678;0.0488;
479;0.7590;679;0.0471;
480;0.7343;680;0.0458;
481;0.7092;681;0.0456;
482;0.6831;682;0.0435;
483;0.6540;683;0.0426;
484;0.6256;684;0.0411;
485;0.5972;685;0.0397;
486;0.5672;686;0.0394;
487;0.5360;687;0.0375;
488;0.5058;688;0.0376;
489;0.4746;689;0.0374;
490;0.4442;690;0.0359;
491;0.4150;691;0.0353;
492;0.3861;692;0.0348;
493;0.3561;693;0.0334;
494;0.3330;694;0.0323;
495;0.3144;695;0.0315;
496;0.2874;696;0.0315;
497;0.2628;697;0.0298;
498;0.2395;698;0.0302;
499;0.2187;699;0.0276;
500;0.1983;700;0.0292;
501;0.1798;701;0.0279;
502;0.1633;702;0.0263;
503;0.1483;703;0.0265;
504;0.1329;704;0.0256;
505;0.1209;705;0.0263;
506;0.1090;706;0.0253;
507;0.0977;707;0.0242;
508;0.0897;708;0.0233;
509;0.0800;709;0.0233;
510;0.0726;710;0.0237;
511;0.0640;711;0.0212;
512;0.0589;712;0.0211;
513;0.0505;713;0.0212;
514;0.0448;714;0.0212;
515;0.0407;715;0.0201;
516;0.0351;716;0.0193;
517;0.0314;717;0.0193;
518;0.0284;718;0.0190;
519;0.0252;719;0.0178;
520;0.0228;720;0.0189;
521;0.0183;721;0.0174;
522;0.0161;722;0.0177;
523;0.0148;723;0.0167;
524;0.0154;724;0.0167;
525;0.0121;725;0.0164;
526;0.0099;726;0.0157;
527;0.0093;727;0.0155;
528;0.0088;728;0.0151;
529;0.0055;729;0.0152;
530;0.0061;730;0.0147;
531;0.0045;731;0.0147;
532;0.0061;732;0.0131;
533;0.0036;733;0.0138;
534;0.0037;734;0.0135;
535;0.0032;735;0.0130;
536;0.0015;736;0.0125;
537;0.0032;737;0.0125;
538;0.0021;738;0.0124;
539;0.0028;739;0.0120;
540;0.0016;740;0.0119;
541;0.0021;741;0.0110;
542;0.0002;742;0.0104;
543;0.0005;743;0.0116;
544;0.0020;744;0.0109;
545;0.0010;745;0.0107;
546;0.0011;746;0.0102;
547;0.0019;747;0.0099;
548;0.0026;748;0.0113;
549;0.0028;749;0.0102;
550;0.0002;750;0.0092;
551;0.0006;;;
552;0.0008;;;
554;0.0002;;;
556;0.0009;;;
558;0.0012;;;
559;0.0021;;;
561;0.0017;;;
563;0.0034;;;
566;0.0007;;;
567;0.0002;;;
568;0.0010;;;
569;0.0001;;;
571;0.0013;;;
573;0.0004;;;
574;0.0002;;;
580;0.0011;;;
582;0.0011;;;
583;0.0004;;;
584;0.0016;;;
585;0.0004;;;
586;0.0018;;;
588;0.0010;;;
590;0.0016;;;
595;0.0001;;;
596;0.0008;;;
598;0.0004;;;
600;0.0018;;;
601;0.0010;;;
602;0.0008;;;
605;0.0001;;;
607;0.0006;;;
610;0.0005;;;
611;0.0022;;;
612;0.0012;;;
614;0.0003;;;
615;0.0014;;;
616;0.0008;;;
618;0.0016;;;
619;0.0002;;;
622;0.0003;;;
624;0.0012;;;
625;0.0005;;;
626;0.0018;;;
627;0.0004;;;
629;0.0005;;;
632;0.0001;;;
633;0.0020;;;
635;0.0009;;;
637;0.0013;;;
640;0.0018;;;
641;0.0013;;;
643;0.0007;;;
644;0.0010;;;
645;0.0004;;;
647;0.0007;;;
649;0.0007;;;
652;0.0006;;;
653;0.0017;;;
655;0.0004;;;
657;0.0010;;;
659;0.0003;;;
660;0.0011;;;
661;0.0005;;;
662;0.0001;;;
663;0.0012;;;
665;0.0007;;;
666;0.0007;;;
667;0.0005;;;
668;0.0001;;;
669;0.0015;;;
670;0.0002;;;
671;0.0003;;;
672;0.0007;;;
673;0.0001;;;
674;0.0018;;;
675;0.0016;;;
676;0.0005;;;
677;0.0004;;;
678;0.0011;;;
680;0.0012;;;
681;0.0001;;;
683;0.0002;;;
684;0.0003;;;
685;0.0006;;;
687;0.0013;;;
689;0.0008;;;
691;0.0009;;;
693;0.0001;;;
694;0.0012;;;
696;0.0002;;;
698;0.0001;;;
700;0.0004;;;
702;0.0008;;;
703;0.0006;;;
704;0.0013;;;
705;0.0007;;;
706;0.0011;;;
708;0.0002;;;
712;0.0002;;;
713;0.0008;;;
714;0.0012;;;
719;0.0007;;;
720;0.0002;;;
724;0.0001;;;
725;0.0000;;;
727;0.0011;;;
729;0.0003;;;
732;0.0017;;;
735;0.0011;;;
736;0.0007;;;
737;0.0015;;;
738;0.0004;;;
739;0.0007;;;
741;0.0021;;;
745;0.0024;;;
747;0.0011;;;
749;0.0016;;;
750;0.0003;;;
752;0.0001;;;
754;0.0025;;;
757;0.0000;;;
758;0.0004;;;
759;0.0004;;;
763;0.0007;;;
765;0.0004;;;
767;0.0008;;;
769;0.0002;;;
770;0.0004;;;
775;0.0003;;;
777;0.0003;;;
779;0.0002;;;
782;0.0001;;;
784;0.0001;;;
791;0.0010;;;
792;0.0018;;;
793;0.0004;;;
798;0.0005;;;
802;0.0014;;;
803;0.0001;;;
804;0.0007;;;
806;0.0001;;;
807;0.0018;;;
810;0.0010;;;
813;0.0008;;;
814;0.0003;;;
815;0.0005;;;
818;0.0005;;;
820;0.0002;;;
821;0.0003;;;
822;0.0008;;;
823;0.0009;;;
826;0.0020;;;
828;0.0002;;;
830;0.0008;;;
831;0.0000;;;
832;0.0008;;;
836;0.0015;;;
837;0.0004;;;
839;0.0003;;;
841;0.0006;;;
842;0.0018;;;
843;0.0000;;;
844;0.0011;;;
845;0.0017;;;
846;0.0030;;;
848;0.0002;;;
849;0.0020;;;
851;0.0025;;;
852;0.0007;;;
854;0.0012;;;
857;0.0028;;;
858;0.0009;;;
861;0.0026;;;
864;0.0026;;;
865;0.0057;;;
868;0.0004;;;
869;0.0070;;;
871;0.0031;;;
872;0.0043;;;
873;0.0026;;;
875;0.0016;;;
877;0.0015;;;
878;0.0006;;;
881;0.0062;;;
882;0.0020;;;
883;0.0073;;;
885;0.0028;;;
886;0.0065;;;
887;0.0041;;;
889;0.0061;;;
890;0.0013;;;
891;0.0016;;;
892;0.0067;;;
895;0.0050;;;
896;0.0028;;;
898;0.0022;;;
899;0.0111;;;
