Exitation wavelength (nm);normalized Exitation;emission wavelength (nm);Normalized emission;
300;0.1949;480;0.0065;
301;0.1991;481;0.0032;
302;0.2045;482;0.0040;
303;0.2079;483;0.0072;
304;0.2116;484;0.0100;
305;0.2153;485;0.0150;
306;0.2175;486;0.0208;
307;0.2192;487;0.0275;
308;0.2200;488;0.0358;
309;0.2197;489;0.0457;
310;0.2182;490;0.0584;
311;0.2146;491;0.0738;
312;0.2101;492;0.0916;
313;0.2042;493;0.1103;
314;0.1958;494;0.1367;
315;0.1882;495;0.1625;
316;0.1798;496;0.1945;
317;0.1683;497;0.2307;
318;0.1600;498;0.2685;
319;0.1513;499;0.3124;
320;0.1403;500;0.3564;
321;0.1331;501;0.4026;
322;0.1262;502;0.4572;
323;0.1186;503;0.5086;
324;0.1135;504;0.5611;
325;0.1090;505;0.6182;
326;0.1051;506;0.6677;
327;0.1039;507;0.7212;
328;0.1034;508;0.7681;
329;0.1036;509;0.8134;
330;0.1048;510;0.8580;
331;0.1065;511;0.8902;
332;0.1082;512;0.9231;
333;0.1086;513;0.9514;
334;0.1088;514;0.9678;
335;0.1073;515;0.9885;
336;0.1054;516;0.9956;
337;0.1031;518;0.9998;
338;0.0994;519;0.9944;
339;0.0964;520;0.9831;
340;0.0923;521;0.9744;
341;0.0868;522;0.9576;
342;0.0829;523;0.9377;
343;0.0787;524;0.9149;
344;0.0734;525;0.8959;
345;0.0694;526;0.8688;
346;0.0650;527;0.8461;
347;0.0598;528;0.8198;
348;0.0563;529;0.7964;
349;0.0529;530;0.7688;
350;0.0485;531;0.7379;
351;0.0456;532;0.7128;
352;0.0430;533;0.6903;
353;0.0399;534;0.6593;
354;0.0377;535;0.6384;
355;0.0357;536;0.6124;
356;0.0334;537;0.5899;
357;0.0317;538;0.5679;
358;0.0305;539;0.5449;
359;0.0290;540;0.5255;
360;0.0280;541;0.5061;
361;0.0271;542;0.4862;
362;0.0259;543;0.4734;
363;0.0251;544;0.4530;
364;0.0244;545;0.4398;
365;0.0227;546;0.4262;
366;0.0222;547;0.4116;
367;0.0217;548;0.3995;
368;0.0207;549;0.3861;
369;0.0204;550;0.3740;
370;0.0192;551;0.3642;
371;0.0184;552;0.3529;
372;0.0178;553;0.3437;
373;0.0172;554;0.3321;
374;0.0167;555;0.3232;
375;0.0160;556;0.3128;
376;0.0155;557;0.3035;
377;0.0146;558;0.2935;
378;0.0142;559;0.2860;
379;0.0136;560;0.2765;
380;0.0128;561;0.2671;
381;0.0123;562;0.2582;
382;0.0118;563;0.2496;
383;0.0114;564;0.2400;
384;0.0113;565;0.2340;
385;0.0108;566;0.2241;
386;0.0103;567;0.2166;
387;0.0099;568;0.2086;
388;0.0094;569;0.1997;
389;0.0094;570;0.1930;
390;0.0091;571;0.1841;
391;0.0082;572;0.1771;
392;0.0077;573;0.1714;
393;0.0076;574;0.1601;
394;0.0069;575;0.1555;
395;0.0066;576;0.1483;
396;0.0064;577;0.1430;
397;0.0062;578;0.1357;
398;0.0061;579;0.1281;
399;0.0062;580;0.1237;
400;0.0062;581;0.1171;
401;0.0067;582;0.1122;
402;0.0072;583;0.1076;
403;0.0074;584;0.1016;
404;0.0079;585;0.0998;
405;0.0084;586;0.0962;
406;0.0093;587;0.0929;
407;0.0103;588;0.0900;
408;0.0108;589;0.0853;
409;0.0116;590;0.0842;
410;0.0131;591;0.0805;
411;0.0140;592;0.0787;
412;0.0152;593;0.0768;
413;0.0167;594;0.0727;
414;0.0177;595;0.0712;
415;0.0189;596;0.0688;
416;0.0209;597;0.0670;
417;0.0222;598;0.0648;
418;0.0236;599;0.0624;
419;0.0259;600;0.0613;
420;0.0274;601;0.0598;
421;0.0291;602;0.0583;
422;0.0322;603;0.0568;
423;0.0340;604;0.0551;
424;0.0362;605;0.0543;
425;0.0394;606;0.0530;
426;0.0418;607;0.0518;
427;0.0443;608;0.0497;
428;0.0480;609;0.0476;
429;0.0510;610;0.0478;
430;0.0541;611;0.0452;
431;0.0586;612;0.0442;
432;0.0620;613;0.0435;
433;0.0652;614;0.0416;
434;0.0702;615;0.0405;
435;0.0740;616;0.0401;
436;0.0780;617;0.0386;
437;0.0839;618;0.0383;
438;0.0886;619;0.0366;
439;0.0935;620;0.0359;
440;0.1009;621;0.0338;
441;0.1068;622;0.0342;
442;0.1130;623;0.0338;
443;0.1230;624;0.0316;
444;0.1306;625;0.0321;
445;0.1383;626;0.0307;
446;0.1498;627;0.0307;
447;0.1585;628;0.0302;
448;0.1680;629;0.0274;
449;0.1814;630;0.0274;
450;0.1912;631;0.0264;
451;0.2015;632;0.0253;
452;0.2163;633;0.0268;
453;0.2271;634;0.0227;
454;0.2384;635;0.0232;
455;0.2540;636;0.0231;
456;0.2653;637;0.0219;
457;0.2768;638;0.0213;
458;0.2924;639;0.0196;
459;0.3036;640;0.0195;
460;0.3147;641;0.0183;
461;0.3300;642;0.0186;
462;0.3411;643;0.0185;
463;0.3519;644;0.0156;
464;0.3669;645;0.0166;
465;0.3779;646;0.0152;
466;0.3893;647;0.0156;
467;0.4055;648;0.0155;
468;0.4176;649;0.0128;
469;0.4304;650;0.0145;
470;0.4495;651;0.0130;
471;0.4643;652;0.0134;
472;0.4803;653;0.0126;
473;0.5042;654;0.0105;
474;0.5231;655;0.0122;
475;0.5440;656;0.0100;
476;0.5753;657;0.0104;
477;0.6001;658;0.0095;
478;0.6268;659;0.0086;
479;0.6663;660;0.0076;
480;0.6956;661;0.0067;
481;0.7252;662;0.0064;
482;0.7660;663;0.0074;
483;0.7958;664;0.0051;
484;0.8253;665;0.0077;
485;0.8642;666;0.0059;
486;0.8905;667;0.0048;
487;0.9148;668;0.0038;
488;0.9442;669;0.0019;
489;0.9624;670;0.0039;
490;0.9776;671;0.0020;
491;0.9926;672;0.0032;
492;0.9983;673;0.0029;
494;0.9948;674;0.0001;
495;0.9853;;;
496;0.9712;;;
497;0.9439;;;
498;0.9186;;;
499;0.8892;;;
500;0.8416;;;
501;0.8027;;;
502;0.7606;;;
503;0.6990;;;
504;0.6523;;;
505;0.6051;;;
506;0.5411;;;
507;0.4953;;;
508;0.4511;;;
509;0.3930;;;
510;0.3528;;;
511;0.3145;;;
512;0.2662;;;
513;0.2342;;;
514;0.2047;;;
515;0.1688;;;
516;0.1462;;;
517;0.1265;;;
518;0.1036;;;
519;0.0889;;;
520;0.0763;;;
521;0.0618;;;
522;0.0529;;;
523;0.0453;;;
524;0.0364;;;
525;0.0312;;;
526;0.0266;;;
527;0.0212;;;
528;0.0178;;;
529;0.0150;;;
530;0.0120;;;
531;0.0101;;;
532;0.0084;;;
533;0.0066;;;
534;0.0054;;;
535;0.0044;;;
536;0.0032;;;
537;0.0024;;;
538;0.0018;;;
539;0.0010;;;
540;0.0007;;;
