Exitation wavelength (nm);normalized Exitation;emission wavelength (nm);Normalized emission;
250;0.9236;420;0.0422;
251;0.9439;421;0.0242;
252;0.9595;422;0.0141;
253;0.9748;423;0.0086;
254;0.9840;424;0.0071;
255;0.9907;425;0.0078;
256;0.9961;426;0.0093;
257;0.9969;427;0.0118;
258;0.9989;428;0.0146;
259;1.0000;429;0.0185;
260;0.9960;430;0.0235;
261;0.9890;431;0.0303;
262;0.9812;432;0.0396;
263;0.9670;433;0.0499;
264;0.9504;434;0.0642;
265;0.9335;435;0.0806;
266;0.9080;436;0.0994;
267;0.8926;437;0.1222;
268;0.8734;438;0.1479;
269;0.8513;439;0.1757;
270;0.8295;440;0.2121;
271;0.8080;441;0.2575;
272;0.7823;442;0.3036;
273;0.7576;443;0.3621;
274;0.7300;444;0.4205;
275;0.7025;445;0.4836;
276;0.6752;446;0.5492;
277;0.6481;447;0.6127;
278;0.6196;448;0.6740;
279;0.5914;449;0.7306;
280;0.5638;450;0.7829;
281;0.5334;451;0.8298;
282;0.5035;452;0.8724;
283;0.4728;453;0.9142;
284;0.4410;454;0.9548;
285;0.4083;455;0.9810;
286;0.3766;456;0.9985;
287;0.3460;457;1.0000;
288;0.3171;458;0.9982;
289;0.2895;459;0.9997;
290;0.2626;460;0.9935;
291;0.2368;461;0.9824;
292;0.2122;462;0.9631;
293;0.1887;463;0.9506;
294;0.1666;464;0.9359;
295;0.1474;465;0.9132;
296;0.1299;466;0.8997;
297;0.1155;467;0.8732;
298;0.1028;468;0.8629;
299;0.0927;469;0.8392;
300;0.0840;470;0.8278;
301;0.0771;471;0.8083;
302;0.0710;472;0.7928;
303;0.0666;473;0.7764;
304;0.0625;474;0.7661;
305;0.0594;475;0.7537;
306;0.0575;476;0.7453;
307;0.0558;477;0.7318;
308;0.0543;478;0.7274;
309;0.0533;479;0.7182;
310;0.0526;480;0.7053;
311;0.0515;481;0.6924;
312;0.0504;482;0.6803;
313;0.0496;483;0.6617;
314;0.0486;484;0.6474;
315;0.0473;485;0.6334;
316;0.0460;486;0.6207;
317;0.0449;487;0.6063;
318;0.0441;488;0.5928;
319;0.0430;489;0.5765;
320;0.0416;490;0.5668;
321;0.0409;491;0.5499;
322;0.0403;492;0.5326;
323;0.0391;493;0.5149;
324;0.0383;494;0.4968;
325;0.0375;495;0.4775;
326;0.0365;496;0.4605;
327;0.0352;497;0.4428;
328;0.0342;498;0.4316;
329;0.0335;499;0.4165;
330;0.0322;500;0.4006;
331;0.0309;501;0.3860;
332;0.0292;502;0.3777;
333;0.0281;503;0.3625;
334;0.0268;504;0.3501;
335;0.0258;505;0.3374;
336;0.0250;506;0.3259;
337;0.0241;507;0.3105;
338;0.0233;508;0.3026;
339;0.0233;509;0.2944;
340;0.0225;510;0.2830;
341;0.0221;511;0.2726;
342;0.0216;512;0.2638;
343;0.0215;513;0.2567;
344;0.0209;514;0.2482;
345;0.0208;515;0.2401;
346;0.0208;516;0.2348;
347;0.0203;517;0.2258;
348;0.0198;518;0.2198;
349;0.0196;519;0.2099;
350;0.0194;520;0.2021;
351;0.0192;521;0.1971;
352;0.0191;522;0.1897;
353;0.0189;523;0.1836;
354;0.0192;524;0.1779;
355;0.0190;525;0.1726;
356;0.0189;526;0.1662;
357;0.0192;527;0.1614;
358;0.0192;528;0.1551;
359;0.0192;529;0.1503;
360;0.0190;530;0.1440;
361;0.0192;531;0.1390;
362;0.0193;532;0.1331;
363;0.0192;533;0.1294;
364;0.0194;534;0.1230;
365;0.0193;535;0.1184;
366;0.0195;536;0.1135;
367;0.0198;537;0.1112;
368;0.0201;538;0.1075;
369;0.0206;539;0.1024;
370;0.0209;540;0.0996;
371;0.0214;541;0.0953;
372;0.0219;542;0.0914;
373;0.0226;543;0.0881;
374;0.0230;544;0.0851;
375;0.0238;545;0.0817;
376;0.0252;546;0.0791;
377;0.0254;547;0.0757;
378;0.0263;548;0.0730;
379;0.0272;549;0.0691;
380;0.0283;550;0.0677;
381;0.0295;551;0.0662;
382;0.0308;552;0.0638;
383;0.0320;553;0.0614;
384;0.0346;554;0.0589;
385;0.0373;555;0.0569;
386;0.0391;556;0.0554;
387;0.0414;557;0.0533;
388;0.0438;558;0.0512;
389;0.0465;559;0.0496;
390;0.0492;560;0.0476;
391;0.0523;561;0.0464;
392;0.0555;562;0.0444;
393;0.0590;563;0.0432;
394;0.0627;564;0.0421;
395;0.0666;565;0.0404;
396;0.0706;566;0.0388;
397;0.0750;567;0.0375;
398;0.0795;568;0.0359;
399;0.0844;569;0.0346;
400;0.0894;570;0.0346;
401;0.0948;571;0.0327;
402;0.1004;572;0.0311;
403;0.1063;573;0.0300;
404;0.1123;574;0.0292;
405;0.1188;575;0.0281;
406;0.1252;576;0.0267;
407;0.1326;577;0.0262;
408;0.1396;578;0.0245;
409;0.1472;579;0.0247;
410;0.1547;580;0.0236;
411;0.1625;581;0.0232;
412;0.1703;582;0.0216;
413;0.1780;583;0.0216;
414;0.1854;584;0.0205;
415;0.1924;585;0.0201;
416;0.1992;586;0.0190;
417;0.2054;587;0.0184;
418;0.2114;588;0.0173;
419;0.2165;589;0.0180;
420;0.2213;590;0.0168;
421;0.2252;591;0.0163;
422;0.2290;592;0.0157;
423;0.2328;593;0.0152;
424;0.2358;594;0.0140;
425;0.2392;595;0.0136;
426;0.2426;596;0.0136;
427;0.2457;597;0.0124;
428;0.2487;598;0.0124;
429;0.2514;599;0.0124;
430;0.2544;600;0.0113;
431;0.2563;601;0.0113;
432;0.2578;602;0.0108;
433;0.2588;603;0.0108;
434;0.2585;604;0.0108;
435;0.2573;605;0.0103;
436;0.2545;606;0.0097;
437;0.2507;607;0.0097;
438;0.2450;608;0.0080;
439;0.2375;609;0.0086;
440;0.2283;610;0.0080;
441;0.2178;611;0.0080;
442;0.2056;612;0.0075;
443;0.1925;613;0.0080;
444;0.1781;614;0.0075;
445;0.1636;615;0.0069;
446;0.1485;616;0.0069;
447;0.1335;617;0.0064;
448;0.1192;618;0.0058;
449;0.1053;619;0.0058;
450;0.0924;620;0.0059;
451;0.0804;621;0.0053;
452;0.0696;622;0.0053;
453;0.0601;623;0.0053;
454;0.0514;624;0.0054;
455;0.0440;;;
456;0.0379;;;
457;0.0324;;;
458;0.0279;;;
459;0.0242;;;
460;0.0214;;;
461;0.0190;;;
462;0.0169;;;
463;0.0154;;;
464;0.0140;;;
465;0.0129;;;
466;0.0121;;;
467;0.0114;;;
468;0.0110;;;
469;0.0104;;;
470;0.0101;;;
471;0.0098;;;
472;0.0096;;;
473;0.0092;;;
474;0.0090;;;
475;0.0090;;;
476;0.0088;;;
477;0.0088;;;
478;0.0084;;;
479;0.0084;;;
480;0.0084;;;
481;0.0083;;;
482;0.0080;;;
483;0.0080;;;
484;0.0078;;;
485;0.0078;;;
486;0.0080;;;
487;0.0079;;;
488;0.0079;;;
489;0.0079;;;
490;0.0080;;;
491;0.0078;;;
492;0.0077;;;
493;0.0076;;;
494;0.0076;;;
495;0.0074;;;
496;0.0074;;;
497;0.0074;;;
498;0.0074;;;
499;0.0072;;;
500;0.0072;;;
501;0.0072;;;
502;0.0073;;;
503;0.0071;;;
504;0.0071;;;
505;0.0070;;;
506;0.0071;;;
507;0.0070;;;
508;0.0070;;;
509;0.0069;;;
510;0.0069;;;
511;0.0068;;;
512;0.0068;;;
513;0.0067;;;
514;0.0068;;;
515;0.0066;;;
516;0.0068;;;
517;0.0067;;;
518;0.0067;;;
519;0.0067;;;
520;0.0068;;;
521;0.0066;;;
522;0.0067;;;
523;0.0066;;;
524;0.0066;;;
525;0.0065;;;
526;0.0066;;;
527;0.0064;;;
528;0.0065;;;
529;0.0063;;;
530;0.0064;;;
531;0.0064;;;
532;0.0064;;;
533;0.0063;;;
534;0.0062;;;
535;0.0062;;;
536;0.0066;;;
537;0.0063;;;
538;0.0065;;;
539;0.0062;;;
540;0.0063;;;
541;0.0062;;;
542;0.0061;;;
543;0.0061;;;
544;0.0062;;;
545;0.0060;;;
546;0.0060;;;
547;0.0060;;;
548;0.0061;;;
549;0.0060;;;
550;0.0060;;;
551;0.0059;;;
552;0.0059;;;
553;0.0059;;;
554;0.0058;;;
555;0.0058;;;
556;0.0058;;;
557;0.0058;;;
558;0.0057;;;
559;0.0057;;;
560;0.0057;;;
561;0.0056;;;
562;0.0057;;;
563;0.0057;;;
564;0.0056;;;
565;0.0054;;;
566;0.0055;;;
567;0.0055;;;
568;0.0055;;;
569;0.0056;;;
570;0.0055;;;
571;0.0054;;;
572;0.0055;;;
573;0.0055;;;
574;0.0054;;;
575;0.0054;;;
576;0.0053;;;
577;0.0054;;;
578;0.0052;;;
579;0.0052;;;
580;0.0052;;;
581;0.0052;;;
582;0.0052;;;
583;0.0052;;;
584;0.0052;;;
585;0.0052;;;
586;0.0051;;;
587;0.0051;;;
588;0.0053;;;
589;0.0052;;;
590;0.0052;;;
591;0.0051;;;
592;0.0050;;;
593;0.0050;;;
594;0.0052;;;
595;0.0049;;;
596;0.0048;;;
597;0.0049;;;
598;0.0048;;;
599;0.0049;;;
600;0.0049;;;
601;0.0049;;;
602;0.0048;;;
603;0.0047;;;
604;0.0047;;;
605;0.0046;;;
606;0.0046;;;
607;0.0046;;;
608;0.0046;;;
609;0.0046;;;
610;0.0045;;;
611;0.0044;;;
612;0.0045;;;
613;0.0044;;;
614;0.0044;;;
615;0.0044;;;
616;0.0044;;;
617;0.0044;;;
618;0.0044;;;
619;0.0044;;;
620;0.0043;;;
621;0.0044;;;
622;0.0043;;;
623;0.0042;;;
624;0.0042;;;
625;0.0042;;;
626;0.0042;;;
627;0.0042;;;
628;0.0042;;;
629;0.0041;;;
630;0.0042;;;
631;0.0042;;;
632;0.0042;;;
633;0.0041;;;
634;0.0042;;;
635;0.0041;;;
636;0.0040;;;
637;0.0040;;;
638;0.0040;;;
639;0.0040;;;
640;0.0039;;;
641;0.0040;;;
642;0.0039;;;
643;0.0039;;;
644;0.0040;;;
645;0.0039;;;
646;0.0038;;;
647;0.0040;;;
648;0.0040;;;
649;0.0039;;;
