Absorption wavelength (nm);normalized Absorption;emission wavelength (nm);Normalized emission;
300;0.0925;480;0.0098;
301;0.0893;481;0.0107;
302;0.0862;482;0.0134;
303;0.0844;483;0.0168;
304;0.0832;484;0.0217;
305;0.0825;485;0.0268;
306;0.0822;486;0.0339;
307;0.0827;487;0.0417;
308;0.0835;488;0.0510;
309;0.0845;489;0.0636;
310;0.0865;490;0.0787;
311;0.0891;491;0.0958;
312;0.0916;492;0.1157;
313;0.0947;493;0.1400;
314;0.0992;494;0.1682;
315;0.1030;495;0.2001;
316;0.1066;496;0.2354;
317;0.1117;497;0.2736;
318;0.1150;498;0.3193;
319;0.1178;499;0.3619;
320;0.1214;500;0.4054;
321;0.1229;501;0.4552;
322;0.1234;502;0.5083;
323;0.1229;503;0.5586;
324;0.1215;504;0.6093;
325;0.1195;505;0.6609;
326;0.1163;506;0.7163;
327;0.1136;507;0.7617;
328;0.1101;508;0.8050;
329;0.1045;509;0.8534;
330;0.1002;510;0.8834;
331;0.0961;511;0.9154;
332;0.0895;512;0.9323;
333;0.0848;513;0.9624;
334;0.0802;514;0.9730;
335;0.0733;515;0.9837;
336;0.0688;516;0.9952;
337;0.0639;517;0.9950;
338;0.0573;518;1.0000;
339;0.0532;519;0.9929;
340;0.0493;520;0.9812;
341;0.0437;521;0.9754;
342;0.0404;522;0.9542;
343;0.0373;523;0.9352;
344;0.0334;524;0.9239;
345;0.0308;525;0.9049;
346;0.0284;526;0.8918;
347;0.0255;527;0.8641;
348;0.0235;528;0.8401;
349;0.0220;529;0.8173;
350;0.0203;530;0.7922;
351;0.0193;531;0.7716;
352;0.0182;532;0.7459;
353;0.0174;533;0.7250;
354;0.0170;534;0.6989;
355;0.0162;535;0.6742;
356;0.0156;536;0.6595;
357;0.0154;537;0.6382;
358;0.0153;538;0.6203;
359;0.0151;539;0.5992;
360;0.0153;540;0.5840;
361;0.0151;541;0.5674;
362;0.0151;542;0.5519;
363;0.0156;543;0.5352;
364;0.0160;544;0.5238;
365;0.0162;545;0.5078;
366;0.0165;546;0.4979;
367;0.0164;547;0.4818;
368;0.0167;548;0.4711;
369;0.0172;549;0.4584;
370;0.0175;550;0.4500;
371;0.0178;551;0.4387;
372;0.0179;552;0.4287;
373;0.0181;553;0.4162;
374;0.0182;554;0.4079;
375;0.0185;555;0.3960;
376;0.0188;556;0.3878;
377;0.0188;557;0.3790;
378;0.0192;558;0.3660;
379;0.0196;559;0.3575;
380;0.0196;560;0.3477;
381;0.0198;561;0.3387;
382;0.0198;562;0.3288;
383;0.0198;563;0.3198;
384;0.0202;564;0.3089;
385;0.0204;565;0.3008;
386;0.0202;566;0.2903;
387;0.0199;567;0.2822;
388;0.0198;568;0.2725;
389;0.0193;569;0.2644;
390;0.0193;570;0.2537;
391;0.0193;571;0.2454;
392;0.0190;572;0.2368;
393;0.0189;573;0.2275;
394;0.0185;574;0.2206;
395;0.0184;575;0.2112;
396;0.0182;576;0.2053;
397;0.0185;577;0.1971;
398;0.0186;578;0.1896;
399;0.0186;579;0.1823;
400;0.0190;580;0.1755;
401;0.0190;581;0.1692;
402;0.0193;582;0.1616;
403;0.0196;583;0.1555;
404;0.0202;584;0.1490;
405;0.0207;585;0.1442;
406;0.0209;586;0.1388;
407;0.0213;587;0.1330;
408;0.0219;588;0.1279;
409;0.0223;589;0.1245;
410;0.0228;590;0.1188;
411;0.0237;591;0.1144;
412;0.0242;592;0.1108;
413;0.0254;593;0.1057;
414;0.0265;594;0.1018;
415;0.0275;595;0.0987;
416;0.0290;596;0.0946;
417;0.0304;597;0.0912;
418;0.0320;598;0.0878;
419;0.0340;599;0.0847;
420;0.0357;600;0.0819;
421;0.0376;601;0.0793;
422;0.0405;602;0.0754;
423;0.0427;603;0.0736;
424;0.0450;604;0.0710;
425;0.0485;605;0.0686;
426;0.0510;606;0.0658;
427;0.0537;607;0.0634;
428;0.0577;608;0.0613;
429;0.0608;609;0.0585;
430;0.0640;610;0.0566;
431;0.0684;611;0.0552;
432;0.0717;612;0.0534;
433;0.0751;613;0.0513;
434;0.0800;614;0.0497;
435;0.0838;615;0.0479;
436;0.0876;616;0.0461;
437;0.0935;617;0.0451;
438;0.0980;618;0.0432;
439;0.1027;619;0.0408;
440;0.1101;620;0.0395;
441;0.1159;621;0.0387;
442;0.1220;622;0.0368;
443;0.1314;623;0.0354;
444;0.1390;624;0.0349;
445;0.1470;625;0.0335;
446;0.1590;626;0.0321;
447;0.1686;627;0.0310;
448;0.1785;628;0.0298;
449;0.1927;629;0.0295;
450;0.2035;630;0.0272;
451;0.2145;631;0.0274;
452;0.2301;632;0.0261;
453;0.2417;633;0.0247;
454;0.2534;634;0.0237;
455;0.2693;635;0.0230;
456;0.2811;636;0.0226;
457;0.2927;637;0.0222;
458;0.3080;638;0.0211;
459;0.3188;639;0.0204;
460;0.3293;640;0.0190;
461;0.3429;641;0.0189;
462;0.3524;642;0.0178;
463;0.3615;643;0.0177;
464;0.3739;644;0.0172;
465;0.3828;645;0.0164;
466;0.3921;646;0.0158;
467;0.4048;647;0.0151;
468;0.4148;648;0.0149;
469;0.4256;649;0.0137;
470;0.4416;650;0.0138;
471;0.4546;651;0.0130;
472;0.4690;652;0.0127;
473;0.4916;653;0.0129;
474;0.5102;654;0.0120;
475;0.5310;655;0.0114;
476;0.5624;656;0.0115;
477;0.5881;657;0.0116;
478;0.6155;658;0.0117;
479;0.6557;659;0.0101;
480;0.6865;660;0.0102;
481;0.7183;661;0.0103;
482;0.7634;662;0.0093;
483;0.7964;663;0.0086;
484;0.8286;664;0.0088;
485;0.8701;665;0.0088;
486;0.8981;666;0.0086;
487;0.9238;667;0.0086;
488;0.9540;668;0.0080;
489;0.9720;669;0.0073;
490;0.9860;670;0.0074;
491;0.9975;671;0.0074;
492;1.0000;672;0.0072;
493;0.9972;673;0.0072;
494;0.9840;674;0.0069;
495;0.9678;;;
496;0.9459;;;
497;0.9071;;;
498;0.8732;;;
499;0.8349;;;
500;0.7758;;;
501;0.7291;;;
502;0.6806;;;
503;0.6120;;;
504;0.5619;;;
505;0.5134;;;
506;0.4496;;;
507;0.4055;;;
508;0.3641;;;
509;0.3108;;;
510;0.2754;;;
511;0.2424;;;
512;0.2021;;;
513;0.1761;;;
514;0.1530;;;
515;0.1256;;;
516;0.1083;;;
517;0.0932;;;
518;0.0755;;;
519;0.0643;;;
520;0.0549;;;
521;0.0444;;;
522;0.0380;;;
523;0.0324;;;
524;0.0261;;;
525;0.0221;;;
526;0.0188;;;
527;0.0151;;;
528;0.0128;;;
529;0.0108;;;
530;0.0085;;;
531;0.0074;;;
532;0.0062;;;
533;0.0048;;;
534;0.0041;;;
535;0.0034;;;
536;0.0024;;;
537;0.0018;;;
538;0.0014;;;
539;0.0008;;;
540;0.0007;;;
541;0.0006;;;
542;0.0003;;;
