wl,ex,wl,em,Data copyright Molecular Probes
400,3.894588074,520,0.735237481
401,4.017509089,521,0.718071206
402,4.078065777,522,0.706550842
403,4.158440117,523,0.68669432
404,4.302318636,524,0.716784794
405,4.213656002,525,0.74894544
406,4.272679985,526,0.856205798
407,4.268148929,527,0.941058184
408,4.364131066,528,1.049350207
409,4.40336619,529,1.158791195
410,4.47758438,530,1.373695021
411,4.578994573,531,1.522975656
412,4.480885187,532,1.728541347
413,4.532742103,533,1.925203218
414,4.686317891,534,2.14074005
415,4.725957745,535,2.431386601
416,4.737336278,536,2.702761434
417,4.93966204,537,3.007024901
418,4.926383378,538,3.488530486
419,5.09110528,539,4.020474739
420,5.100291299,540,4.493006551
421,5.165639349,541,5.034462139
422,5.385020153,542,5.702414519
423,5.4658745,543,6.366497202
424,5.537629389,544,7.045950107
425,5.735607948,545,7.846753951
426,5.904320837,546,8.625719521
427,6.123340189,547,9.455494029
428,6.232300919,548,10.36605319
429,6.490775401,549,11.27098947
430,6.786813759,550,12.253875
431,7.138889483,551,13.24641586
432,7.421050436,552,14.32685468
433,7.768240328,553,15.27465808
434,8.23056119,554,16.31070152
435,8.358899425,555,17.47139671
436,8.647373184,556,18.60737413
437,8.716468951,557,19.92142718
438,9.063620055,558,21.08646306
439,9.598296977,559,22.38474536
440,9.86912222,560,23.27117012
441,10.35762943,561,24.48025342
442,11.01843506,562,25.7334124
443,11.61263411,563,26.76078531
444,11.92425566,564,27.82242624
445,12.20182762,565,28.72270084
446,12.91664651,566,29.92413699
447,13.35034685,567,30.89592725
448,13.79504327,568,31.93853087
449,14.61303661,569,33.19022587
450,15.43997367,570,34.16381172
451,15.8141099,571,35.07875022
452,16.13730733,572,36.19478876
453,16.98615609,573,37.01758762
454,17.83641782,574,38.24449836
455,18.36698747,575,38.79514327
456,18.85136526,576,39.27921504
457,19.67127507,577,40.15718687
458,20.5127969,578,40.46414002
459,21.43416902,579,41.31178496
460,22.19257241,580,42.0769158
461,23.31124858,581,42.61401559
462,24.24815217,582,43.22632486
463,25.27196528,583,43.75020325
464,26.34798888,584,44.53673141
465,27.43416642,585,44.96846358
466,28.47170143,586,45.36574579
467,29.54018083,587,46.06559917
468,30.72866775,588,46.5401762
469,31.99557321,589,47.41362482
470,33.18543963,590,47.96226542
471,34.06540951,591,48.65950648
472,35.39359932,592,49.41604338
473,36.62835302,593,49.96657492
474,37.58783854,594,50.49790214
475,38.84378401,595,51.68266985
476,40.21309688,596,52.74363654
477,41.80670864,597,53.60779876
478,43.33359061,598,54.36498043
479,44.54956419,599,55.56723957
480,45.95029884,600,56.1363089
481,47.21827143,601,57.5833264
482,48.84038396,602,58.61676233
483,50.53074132,603,60.04284566
484,51.88430057,604,61.30114746
485,53.48102798,605,62.28027117
486,54.99699381,606,64.15819489
487,56.68107419,607,65.64485631
488,58.11985413,608,66.93326849
489,60.19499293,609,68.17205292
490,61.71983546,610,69.6028386
491,63.63317888,611,70.79149349
492,65.01787039,612,72.27868541
493,66.65331,613,74.11551761
494,67.97737935,614,76.16970989
495,69.97758518,615,77.69091072
496,71.16851024,616,79.26446463
497,73.35305461,617,79.96983861
498,74.31162729,618,81.54829545
499,75.70629124,619,83.1918675
500,77.30613579,620,85.23421716
501,78.28948465,621,86.59727927
502,80.29796555,622,87.3975974
503,80.87323335,623,89.19736931
504,81.89507154,624,90.02866215
505,82.97984369,625,90.82879371
506,83.8628055,626,92.32868964
507,84.70484339,627,93.92751872
508,86.18823529,628,94.63859158
509,86.77755742,629,95.88736425
510,87.53965883,630,96.42743012
511,87.35314856,631,97.78832024
512,88.35450686,632,97.75253909
513,89.46770652,633,97.64755218
514,89.34016978,634,98.50081297
515,90.20605774,635,99.28505772
516,90.47861672,636,98.95449586
517,90.85473601,637,99.83907366
518,91.33468272,638,99.63120539
519,91.61205576,639,99.56733991
520,92.45917456,640,99.71565082
521,93.52537648,641,100
522,93.62710974,642,99.02200403
523,94.09965453,643,98.27279531
524,94.92027013,644,98.31131508
525,95.25946682,645,97.55279043
526,95.92773558,646,96.88654116
527,96.73698266,647,95.78516929
528,97.57992219,648,94.71659177
529,97.91724359,649,92.93133237
530,97.87631943,650,91.6691111
531,98.10304146,651,90.70521144
532,98.3943419,652,89.88366566
533,99.36058371,653,89.74257712
534,99.25887552,654,87.46880234
535,100,655,87.56538412
536,99.74048875,656,85.12334751
537,99.21545509,657,83.56451323
538,99.41821079,658,83.18953742
539,99.45203389,659,80.80416134
540,99.41633126,660,80.2516062
541,99.11149599,661,78.50890629
542,98.0913759,662,78.09818504
543,97.63926981,663,77.32000993
544,96.79990405,664,77.30080802
545,96.39009748,665,74.84161951
546,95.27660587,666,73.93685263
547,94.00840955,667,72.33496029
548,93.41417715,668,71.56581489
549,92.30948092,669,70.06315504
550,90.9171123,670,69.64142735
551,89.67657958,671,68.2388386
552,88.48225366,672,66.35850466
553,86.79500891,673,64.94175956
554,85.92045105,674,63.47038904
555,83.00365127,675,62.75972038
556,82.09315823,676,61.63370057
557,80.23781646,677,59.7221415
558,78.53730008,678,58.1641814
559,77.24395018,679,57.62029979
560,75.79727066,680,56.60496538
561,74.58416094,681,55.09831382
562,72.74248366,682,54.0325685
563,71.44083905,683,53.27635853
564,70.03703416,684,52.40542611
565,68.69575119,685,51.23763478
566,67.12907747,686,50.29858806
567,66.08263312,687,49.24923614
568,65.41188044,688,47.57809392
569,64.8003853,689,47.07334739
570,63.72107954,690,45.5590317
571,62.79852889,691,44.19955123
572,62.18230433,692,43.50322785
573,61.18375878,693,42.80143954
574,60.19452417,694,41.68179873
575,58.81499988,695,40.32261061
576,58.20579577,696,39.69221706
577,57.16500892,697,39.83532129
578,56.50909091,698,38.26913612
579,55.95455805,699,36.77925799
580,55.13379017,700,36.37200932
581,54.03332442,701,35.750991
582,53.63009404,702,34.41202085
583,52.49127387,703,33.64082619
584,52.50349955,704,31.71901476
585,51.18987404,705,31.89064944
586,50.64986392,706,31.48940967
587,49.6594844,707,30.29784814
588,48.4334791,708,29.58686134
589,47.4453913,709,28.48118954
590,46.80814844,710,27.81035737
591,45.6854017,711,26.87323641
592,45.373398,712,25.9382123
593,43.93395889,713,25.41151055
594,43.13034967,714,24.98585533
595,42.22237274,715,24.42158829
596,41.44389269,716,23.96364276
597,40.08432365,717,23.26810686
598,39.19321068,718,22.4376318
599,37.84449914,719,22.32315347
600,36.85984492,720,21.50188749
601,35.40673438,721,21.72080467
602,34.82115372,722,21.11761108
603,33.98813524,723,20.62265084
604,32.62914791,724,20.110776
605,31.6142497,725,20.22443945
606,30.39623443,726,19.55923976
607,29.40357893,727,18.96246761
608,28.41718354,728,18.88058682
609,27.27020972,729,18.54682634
610,25.87276963,730,18.11021962
611,24.95668911,731,17.26365245
612,24.16115653,732,17.06582889
613,23.02580833,733,16.36312041
614,21.82535231,734,16.26553258
615,21.03985292,735,15.96281084
616,19.99291846,736,16.09209621
617,19.09678439,737,15.30655006
618,18.28068376,738,14.94931449
619,17.27938686,739,14.46874976
620,15.93357194,740,14.2915544
621,15.20603026,741,14.19279811
622,14.19633433,742,14.0551378
623,13.22155549,743,13.64740978
624,12.61637078,744,12.91545615
625,11.67045202,745,13.04691785
626,10.82080633,746,12.54361353
627,10.23864729,747,12.14022749
628,9.703728252,748,12.19229956
629,9.22123556,749,11.90048421
630,8.582288238,750,11.49720202
631,8.050699841,,
632,7.634325391,,
633,7.247959471,,
634,6.808771724,,
635,6.604686869,,
636,6.120090546,,
637,5.705310687,,
638,5.3972299,,
639,5.24077735
640,5.082359916
