wl,ex,wl,em,"Data copyright Molecular Probes, Inc."
300,4.021639593,490,4.426621532,
301,4.02215574,491,4.424151633,
302,4.036376792,492,4.929520672,
303,4.162829228,493,5.73521066,
304,4.193450567,494,6.825009728,
305,4.263251688,495,8.354150243,
306,4.272200395,496,10.24496011,
307,4.23695078,497,12.65832792,
308,4.312338763,498,16.01583375,
309,4.329186013,499,19.69319042,
310,4.266451253,500,24.43359014,
311,4.32727364,501,29.88959346,
312,4.337246218,502,36.02882056,
313,4.347490069,503,42.91544278,
314,4.362126918,504,50.41457806,
315,4.372758233,505,58.54612234
316,4.410598654,506,66.48296555
317,4.408129463,507,74.38440428
318,4.571958738,508,81.26765147
319,4.55436926,509,87.37104115
320,4.646059036,510,92.65519581
321,4.7794773,511,96.49740806
322,4.801413627,512,98.46077592
323,4.968674789,513,99.79011858
324,5.008430338,514,100
325,5.187934071,515,98.74732894
326,5.510336421,516,96.81773622
327,5.650832496,517,94.21242881
328,5.841662181,518,91.59513893
329,5.966621942,519,88.98160153
330,6.043955868,520,85.80638156
331,6.280423998,521,82.50675893
332,6.349576189,522,78.79226823
333,6.508552698,523,75.26275604
334,6.745733084,524,72.66898348
335,6.919083719,525,70.30230519
336,7.074636651,526,68.6771462
337,7.216678718,527,66.73074984
338,7.382670233,528,64.72635759
339,7.411174886,529,63.19745378
340,7.526161782,530,61.7257374
341,7.703674276,531,60.46880373
342,7.989456514,532,59.54751491
343,8.001762326,533,58.96082675
344,8.164679856,534,58.4141297
345,8.295988729,535,57.60289855
346,8.331283955,536,56.86259494
347,8.226462062,537,56.22436635
348,8.435079021,538,55.83799267
349,8.706689498,539,54.59672252
350,8.680284806,540,53.71253058
351,8.774825259,541,52.95683669
352,8.856012211,542,52.04932152
353,8.828010177,543,51.41960511
354,8.909581651,544,50.40883867
355,9.017417112,545,48.843803
356,9.04279026,546,47.30565624
357,9.092159452,547,45.99502502
358,9.003050396,548,44.69568884
359,9.044122706,549,43.48148964
360,9.046113055,550,42.45571947
361,8.979126375,551,41.47367458
362,8.953763624,552,40.31727929
363,8.962711153,553,39.024051
364,8.789474383,554,37.60464188
365,8.869185598,555,36.57134179
366,8.917049867,556,35.48051683
367,8.881642028,557,34.65548552
368,8.871743465,558,33.5197075
369,8.817735465,559,32.62206969
370,8.626407243,560,31.38390313
371,8.675333669,561,30.60412693
372,8.541023423,562,29.56741384
373,8.382702013,563,28.69057793
374,8.275892839,564,27.9503102
375,8.180477836,565,27.16148871
376,8.062887116,566,26.41676293
377,7.867749248,567,25.52343737
378,7.837713396,568,25.10792192
379,7.728584609,569,24.35679925
380,7.579677324,570,24.01475642
381,7.40104036,571,23.35324387
382,7.203657223,572,22.93675643
383,7.046701616,573,22.49323
384,6.894485704,574,22.16244128
385,6.781535752,575,21.58319449
386,6.589725556,576,21.19442475
387,6.475092678,577,20.63017172
388,6.283770289,578,20.03859326
389,6.148235375,579,19.8131254
390,6.043911078,580,19.61371377
391,5.881165791,581,19.471522
392,5.770837588,582,18.87305326
393,5.613200543,583,18.52214413
394,5.471625709,584,17.98322105
395,5.227879652,585,17.67803155
396,5.138046528,586,17.10488754
397,4.962300338,587,16.86245909
398,4.709193822,588,16.35280951
399,4.601944499,589,16.09528707
400,4.361823757,590,15.88175819
401,4.178223464,591,15.53216613
402,3.95867259,592,15.17251433
403,3.682919958,593,14.73043325
404,3.636500498,594,14.62755702
405,3.469343236,595,14.33052025
406,3.276296842,596,13.90376146
407,3.106590762,597,13.67352997
408,2.958727702,598,13.72144643
409,2.898115847,599,13.44445215
410,2.782922195,600,13.11104046
411,2.62546399,601,12.83593202
412,2.577687589,602,12.60296487
413,2.560086502,603,12.38534587
414,2.613742616,604,12.09137922
415,2.682503652,605,11.86158702
416,2.667924827,606,11.81499598
417,2.684371059,607,11.49880615
418,2.765335344,608,11.47083819
419,2.840110385,609,11.11324003
420,2.903465272,610,10.92950615
421,3.044427667,611,10.65582109
422,3.211932684,612,10.49769082
423,3.37292561,613,10.38380758
424,3.432343676,614,10.14898448
425,3.559574185,615,10.01079894
426,3.742597901,616,9.848869521
427,3.934688,617,9.689983765
428,4.142051406,618,9.174103911
429,4.307898395,619,9.145730581
430,4.601520927,620,9.020833953
431,4.760547722,621,8.868909773
432,5.136064782,622,8.610369183
433,5.474675083,623,8.427850543
434,5.907787146,624,8.087024546
435,6.199943617,625,8.004215316
436,6.603380552,626,7.888886884
437,6.983012906,627,7.701510228
438,7.374375732,628,7.409620229
439,7.661919633,629,7.307337285
440,8.149883429,630,7.142550639
441,8.374923941,631,7.152542899
442,8.776831762,632,6.762593622
443,9.229735967,633,6.651993633
444,9.587015796,634,6.496445599
445,10.0483455,635,6.324244854
446,10.64379824,636,6.10034169
447,11.10531688,637,6.088329944
448,11.48740266,638,5.990004019
449,11.97564937,639,5.735938812
450,12.46769564,640,5.866748427
451,13.0048931,641,5.73042939
452,13.59601553,642,5.626293385
453,14.26819505,643,5.391885842
454,14.90328784,644,5.406943822
455,15.64730169,645,5.335370821
456,16.28128162,646,5.209482854
457,17.08323165,647,5.151220611
458,17.99924574,648,4.959082986
459,19.03095519,649,4.910757015
460,20.04661722,650,4.876269735
461,21.36485969,,
462,22.48459674,,
463,23.93419986,,
464,25.46831526,,
465,26.94839046,,
466,28.58517038,,
467,30.24997749,,
468,32.03451038,,
469,33.64371386,,
470,35.62047901,,
471,37.12459273,,
472,38.9420618,,
473,40.42630002,,
474,42.00646677,,
475,43.25098644
476,44.48951322
477,46.01085003
478,47.19117894
479,48.75519953
480,49.88384444
481,51.03101709
482,52.1153239
483,53.41885926
484,54.79711591
485,55.94762671
486,57.32973892
487,58.853797
488,60.05331278
489,61.84420894
490,63.30743089
491,65.17064186
492,67.11435798
493,69.54405203
494,71.96554126
495,75.25857221
496,78.41285406
497,82.2313701
498,85.95051004
499,90.14700893
500,93.78944669
501,97.02115142
502,98.91764254
503,100
504,99.27186376
505,97.33803693
506,93.6555277
507,87.93569879
508,81.58894991
509,73.82425481
510,66.02079016
511,58.04374147
512,50.40177114
513,43.04230182
514,36.22071913
515,30.35932111
516,25.07217232
517,20.37414495
518,16.82253327
519,13.91215522
520,11.42756227
521,9.591314224
522,8.08715857
523,6.83756614
524,5.898454307
525,5.081452073
526,4.477139895
527,4.148099213
528,3.981452207
529,3.634190188
530,3.540032684
