wl,ex,wl,em,"Data copyright Molecular Probes, Inc."
470,3.306109948,600,4.135609181
471,3.205832224,601,4.513669015
472,3.245162275,602,4.774767916
473,3.20607676,603,4.966736753
474,3.231581322,604,5.114260755
475,3.333813411,605,5.286508075
476,3.294424676,606,5.539961461
477,3.428921199,607,5.739190981
478,3.452438125,608,5.981653298
479,3.556643357,609,6.26052739
480,3.605385987,610,6.835123481
481,3.641467381,611,7.273080694
482,3.63583834,612,8.059310525
483,3.804601673,613,8.816719312
484,3.815953277,614,9.668011235
485,3.97807361,615,10.86846579
486,4.17183442,616,12.14659798
487,4.268197897,617,13.61314494
488,4.423334617,618,15.24737254
489,4.506447185,619,17.08539179
490,4.451490048,620,19.16737041
491,4.767041094,621,21.44909103
492,4.852289473,622,23.63302812
493,4.915310496,623,26.12318073
494,5.176112231,624,28.69192749
495,5.380392787,625,31.88888319
496,5.517918915,626,35.64046903
497,5.662386099,627,39.06799375
498,5.894867755,628,42.58319641
499,5.963797821,629,46.34572584
500,6.194282618,630,50.06879024
501,6.27941917,631,54.42918451
502,6.453394576,632,57.71475386
503,6.718589273,633,61.85619786
504,6.815561356,634,66.20552257
505,7.16289951,635,70.33292708
506,7.316197861,636,74.18564697
507,7.418271728,637,78.18960652
508,7.791449685,638,81.89070718
509,7.946132685,639,85.63911878
510,8.167900535,640,88.76831372
511,8.389090134,641,91.42415858
512,8.604003557,642,93.59970436
513,8.948969175,643,96.32345441
514,9.177356067,644,97.52470722
515,9.504104998,645,98.75642189
516,9.923531376,646,100
517,10.19606166,647,99.75081779
518,10.61568529,648,98.95509648
519,11.00868362,649,98.58561661
520,11.30510181,650,97.89496043
521,11.65752447,651,96.37547097
522,11.90114671,652,95.52384596
523,12.3413672,653,94.39768741
524,12.6637157,654,92.45302293
525,12.98849982,655,90.7303195
526,13.07196471,656,88.54751394
527,13.45624073,657,85.59298044
528,13.99351703,658,83.13185524
529,14.26297056,659,79.92707757
530,14.52411009,660,76.59757125
531,15.00295334,661,73.9078367
532,15.36615877,662,71.32725876
533,15.91869355,663,68.77389079
534,16.13814426,664,66.47340807
535,16.55697954,665,63.51719359
536,16.96964363,666,60.85786557
537,17.35809128,667,57.56653032
538,17.56176104,668,55.62251019
539,17.99174982,669,53.50074796
540,18.30892107,670,52.6033091
541,18.70125423,671,50.7590875
542,19.11648572,672,49.38375793
543,19.34501142,673,48.02613511
544,19.55983841,674,46.52338032
545,20.17248147,675,45.01416714
546,20.50082382,676,43.50925956
547,21.24183426,677,42.00327558
548,21.65428556,678,41.4980092
549,22.29525947,679,40.50087554
550,22.78857313,680,39.77497284
551,23.695521,681,38.98199859
552,24.40434039,682,38.73302909
553,24.98834499,683,38.50793834
554,26.04942602,684,38.2828476
555,26.8696566,685,38.05775686
556,27.93440393,686,37.83266612
557,28.82019114,687,37.56806924
558,29.87409717,688,37.4614969
559,31.08164934,689,37.11788776
560,32.16014128,690,36.43931811
561,33.05899774,691,35.96973775
562,34.08017235,692,36.28499602
563,35.40838247,693,35.81304992
564,36.4317105,694,35.61176758
565,37.50394879,695,35.00307886
566,38.65175379,696,34.97408676
567,39.92341157,697,34.94430914
568,41.45687072,698,34.20422194
569,42.34941759,699,33.96786992
570,43.56906149,700,33.75443166
571,44.50926505,701,33.67282802
572,45.89150695,702,33.04850785
573,46.50710254,703,33.10107739
574,47.67265349,704,32.56729068
575,48.61870537,705,32.26162235
576,49.20985681,706,31.35018078
577,49.92310016,707,31.72453976
578,50.46491098,708,31.64454957
579,51.21919551,709,30.51328517
580,52.02036238,710,30.18618683
581,52.34094257,711,29.61275798
582,53.07979067,712,29.25789769
583,53.47628705,713,28.73649128
584,54.10789857,714,28.74616778
585,54.79961107,715,28.09648629
586,55.38981441,716,27.7347874
587,56.22543818,717,27.07631128
588,56.85534511,718,26.60497634
589,57.26249283,719,25.62743137
590,58.13241862,720,25.26102036
591,58.92234678,721,24.8463978
592,59.2101095,722,24.28398615
593,59.8782306,723,23.2128152
594,60.81455639,724,22.5292779
595,61.82171239,725,21.73650179
596,62.50053164,726,20.86881277
597,63.64347621,727,20.01632171
598,64.62727852,728,19.71688211
599,66.2861085,729,18.63820484
600,68.05142931,730,18.18734436
601,69.43003686,731,17.13168693
602,71.10226823,732,16.98373816
603,73.41623776,733,16.06671801
604,74.91391736,734,15.51065385
605,77.3577374,735,15.44096778
606,79.44102976,736,14.81045346
607,81.86526982,737,14.65059971
608,83.56090205,738,14.34174
609,85.68273831,739,13.9029824
610,88.07842323,740,13.63663877
611,90.23596724,741,13.31572394
612,91.67372815,742,13.02398942
613,93.50065045,743,12.77415656
614,95.38314496,744,12.2111205
615,96.3193811,745,11.8487456
616,97.88808386,746,11.83821821
617,98.71063814,747,11.48702854
618,99.44874067,748,11.17109772
619,99.6881834,749,11.46645791
620,100,750,10.94473556
621,99.78628668
622,99.55195489
623,98.95609264
624,97.98190939
625,96.86623681
626,95.56411331
627,93.49260365
628,91.75240443
629,89.58521585
630,87.1039251
631,84.08081041
632,81.17223091
633,78.30236206
634,75.43501497
635,71.9041699
636,68.50774594
637,64.75652835
638,61.23811035
639,56.89224041
640,53.22879295
641,48.95352212
642,45.5648343
643,42.34975043
644,39.4688301
645,35.97073132
646,33.02636736
647,29.96753948
648,27.58034115
649,25.06952677
650,22.9816794
651,20.94224132
652,19.03184948
653,17.20448633
654,15.56025705
655,14.43333684
656,13.38225894
657,12.47033252
658,11.65553123
659,10.7861323
660,10.27621443
661,9.892218301
662,9.543010815
663,9.088471542
664,9.061890178
665,8.797088719
666,8.387242026
667,8.257630432
668,8.214247886
669,8.082528671
670,8.042850007
