Absorption wavelength (nm);normalized Absorption;emission wavelength (nm);Normalized emission;
300;0.5042;480;0.0036;
301;0.4557;481;0.0048;
302;0.4140;482;0.0055;
303;0.3761;483;0.0069;
304;0.3450;484;0.0083;
305;0.3196;485;0.0101;
306;0.2974;486;0.0122;
307;0.2776;487;0.0150;
308;0.2610;488;0.0184;
309;0.2478;489;0.0232;
310;0.2332;490;0.0284;
311;0.2221;491;0.0347;
312;0.2142;492;0.0430;
313;0.2046;493;0.0551;
314;0.1966;494;0.0684;
315;0.1889;495;0.0868;
316;0.1832;496;0.1087;
317;0.1757;497;0.1382;
318;0.1692;498;0.1728;
319;0.1638;499;0.2140;
320;0.1586;500;0.2650;
321;0.1532;501;0.3241;
322;0.1481;502;0.3916;
323;0.1462;503;0.4668;
324;0.1426;504;0.5519;
325;0.1384;505;0.6353;
326;0.1360;506;0.7210;
327;0.1354;507;0.7983;
328;0.1339;508;0.8687;
329;0.1296;509;0.9255;
330;0.1300;510;0.9650;
331;0.1277;511;0.9941;
332;0.1276;512;1.0000;
333;0.1282;513;0.9939;
334;0.1277;514;0.9716;
335;0.1259;515;0.9390;
336;0.1258;516;0.9035;
337;0.1251;517;0.8543;
338;0.1249;518;0.8059;
339;0.1230;519;0.7656;
340;0.1230;520;0.7238;
341;0.1219;521;0.6775;
342;0.1223;522;0.6366;
343;0.1216;523;0.6008;
344;0.1222;524;0.5685;
345;0.1229;525;0.5370;
346;0.1229;526;0.5136;
347;0.1215;527;0.4845;
348;0.1218;528;0.4648;
349;0.1219;529;0.4417;
350;0.1218;530;0.4243;
351;0.1215;531;0.4053;
352;0.1218;532;0.3874;
353;0.1208;533;0.3749;
354;0.1200;534;0.3632;
355;0.1188;535;0.3533;
356;0.1200;536;0.3442;
357;0.1185;537;0.3333;
358;0.1186;538;0.3232;
359;0.1176;539;0.3140;
360;0.1184;540;0.3079;
361;0.1176;541;0.2976;
362;0.1175;542;0.2885;
363;0.1178;543;0.2800;
364;0.1177;544;0.2724;
365;0.1164;545;0.2627;
366;0.1154;546;0.2534;
367;0.1146;547;0.2447;
368;0.1129;548;0.2345;
369;0.1116;549;0.2245;
370;0.1112;550;0.2148;
371;0.1081;551;0.2060;
372;0.1075;552;0.1962;
373;0.1048;553;0.1889;
374;0.1036;554;0.1803;
375;0.1028;555;0.1714;
376;0.1005;556;0.1634;
377;0.0977;557;0.1562;
378;0.0959;558;0.1478;
379;0.0942;559;0.1420;
380;0.0920;560;0.1353;
381;0.0895;561;0.1277;
382;0.0890;562;0.1230;
383;0.0858;563;0.1156;
384;0.0808;564;0.1102;
385;0.0820;565;0.1054;
386;0.0795;566;0.0996;
387;0.0777;567;0.0950;
388;0.0751;568;0.0908;
389;0.0729;569;0.0845;
390;0.0705;570;0.0804;
391;0.0684;571;0.0773;
392;0.0657;572;0.0741;
393;0.0635;573;0.0690;
394;0.0612;574;0.0670;
395;0.0592;575;0.0631;
396;0.0568;576;0.0597;
397;0.0552;577;0.0561;
398;0.0529;578;0.0540;
399;0.0511;579;0.0528;
400;0.0492;580;0.0503;
401;0.0476;581;0.0489;
402;0.0453;582;0.0470;
403;0.0436;583;0.0460;
404;0.0425;584;0.0439;
405;0.0409;585;0.0427;
406;0.0399;586;0.0410;
407;0.0397;587;0.0396;
408;0.0383;588;0.0370;
409;0.0380;589;0.0359;
410;0.0377;590;0.0352;
411;0.0374;591;0.0342;
412;0.0375;592;0.0329;
413;0.0375;593;0.0317;
414;0.0375;594;0.0302;
415;0.0380;595;0.0296;
416;0.0386;596;0.0284;
417;0.0388;597;0.0274;
418;0.0396;598;0.0267;
419;0.0406;599;0.0253;
420;0.0411;600;0.0242;
421;0.0428;;;
422;0.0433;;;
423;0.0438;;;
424;0.0457;;;
425;0.0471;;;
426;0.0487;;;
427;0.0503;;;
428;0.0523;;;
429;0.0536;;;
430;0.0566;;;
431;0.0587;;;
432;0.0625;;;
433;0.0645;;;
434;0.0684;;;
435;0.0713;;;
436;0.0760;;;
437;0.0783;;;
438;0.0824;;;
439;0.0858;;;
440;0.0897;;;
441;0.0934;;;
442;0.0972;;;
443;0.1021;;;
444;0.1070;;;
445;0.1112;;;
446;0.1168;;;
447;0.1220;;;
448;0.1284;;;
449;0.1337;;;
450;0.1397;;;
451;0.1459;;;
452;0.1524;;;
453;0.1586;;;
454;0.1658;;;
455;0.1740;;;
456;0.1819;;;
457;0.1901;;;
458;0.1996;;;
459;0.2081;;;
460;0.2182;;;
461;0.2285;;;
462;0.2405;;;
463;0.2519;;;
464;0.2647;;;
465;0.2786;;;
466;0.2923;;;
467;0.3066;;;
468;0.3215;;;
469;0.3371;;;
470;0.3531;;;
471;0.3690;;;
472;0.3852;;;
473;0.4027;;;
474;0.4191;;;
475;0.4351;;;
476;0.4507;;;
477;0.4661;;;
478;0.4802;;;
479;0.4919;;;
480;0.5032;;;
481;0.5135;;;
482;0.5229;;;
483;0.5314;;;
484;0.5402;;;
485;0.5500;;;
486;0.5600;;;
487;0.5719;;;
488;0.5850;;;
489;0.6001;;;
490;0.6166;;;
491;0.6360;;;
492;0.6560;;;
493;0.6778;;;
494;0.7003;;;
495;0.7255;;;
496;0.7520;;;
497;0.7796;;;
498;0.8097;;;
499;0.8420;;;
500;0.8748;;;
501;0.9071;;;
502;0.9389;;;
503;0.9668;;;
504;0.9876;;;
505;1.0000;;;
506;0.9989;;;
507;0.9864;;;
508;0.9585;;;
509;0.9172;;;
510;0.8630;;;
511;0.7996;;;
512;0.7302;;;
513;0.6557;;;
514;0.5815;;;
515;0.5090;;;
516;0.4406;;;
517;0.3790;;;
518;0.3239;;;
519;0.2780;;;
520;0.2370;;;
521;0.2030;;;
522;0.1742;;;
523;0.1514;;;
524;0.1300;;;
525;0.1144;;;
526;0.0996;;;
527;0.0880;;;
528;0.0774;;;
529;0.0692;;;
530;0.0621;;;
531;0.0557;;;
532;0.0501;;;
533;0.0457;;;
534;0.0411;;;
535;0.0380;;;
536;0.0337;;;
537;0.0319;;;
538;0.0285;;;
539;0.0266;;;
540;0.0245;;;
541;0.0229;;;
542;0.0212;;;
543;0.0203;;;
544;0.0184;;;
545;0.0170;;;
546;0.0161;;;
547;0.0150;;;
548;0.0144;;;
549;0.0139;;;
550;0.0123;;;
551;0.0117;;;
552;0.0114;;;
553;0.0109;;;
554;0.0099;;;
555;0.0107;;;
556;0.0101;;;
557;0.0097;;;
558;0.0092;;;
559;0.0091;;;
560;0.0088;;;
561;0.0084;;;
562;0.0086;;;
563;0.0076;;;
564;0.0079;;;
565;0.0070;;;
566;0.0071;;;
567;0.0066;;;
568;0.0068;;;
569;0.0064;;;
570;0.0062;;;
571;0.0060;;;
572;0.0059;;;
573;0.0055;;;
574;0.0060;;;
575;0.0059;;;
576;0.0059;;;
577;0.0050;;;
578;0.0054;;;
579;0.0051;;;
580;0.0050;;;
581;0.0042;;;
582;0.0048;;;
583;0.0041;;;
584;0.0047;;;
585;0.0042;;;
586;0.0043;;;
587;0.0038;;;
588;0.0043;;;
589;0.0038;;;
590;0.0038;;;
591;0.0039;;;
592;0.0041;;;
593;0.0039;;;
594;0.0042;;;
595;0.0037;;;
596;0.0039;;;
597;0.0035;;;
598;0.0039;;;
599;0.0034;;;
600;0.0035;;;
601;0.0033;;;
602;0.0034;;;
603;0.0031;;;
604;0.0036;;;
605;0.0030;;;
606;0.0035;;;
607;0.0028;;;
608;0.0034;;;
609;0.0033;;;
610;0.0035;;;
611;0.0029;;;
612;0.0033;;;
613;0.0030;;;
614;0.0028;;;
615;0.0027;;;
616;0.0029;;;
617;0.0030;;;
618;0.0028;;;
619;0.0028;;;
620;0.0024;;;
621;0.0028;;;
622;0.0029;;;
623;0.0028;;;
624;0.0030;;;
625;0.0028;;;
626;0.0032;;;
627;0.0032;;;
628;0.0027;;;
629;0.0027;;;
630;0.0027;;;
631;0.0026;;;
632;0.0028;;;
633;0.0028;;;
634;0.0026;;;
635;0.0027;;;
636;0.0027;;;
637;0.0031;;;
638;0.0028;;;
639;0.0030;;;
640;0.0023;;;
641;0.0023;;;
642;0.0021;;;
643;0.0026;;;
644;0.0023;;;
645;0.0024;;;
646;0.0021;;;
647;0.0026;;;
648;0.0019;;;
649;0.0024;;;
