Absorption wavelength (nm);normalized Absorption;emission wavelength (nm);Normalized emission;
250;0.3097;520;0.0090;
251;0.3155;521;0.0092;
252;0.3206;522;0.0097;
253;0.3241;523;0.0106;
254;0.3268;524;0.0114;
255;0.3274;525;0.0125;
256;0.3267;526;0.0139;
257;0.3226;527;0.0149;
258;0.3155;528;0.0173;
259;0.3047;529;0.0196;
260;0.2907;530;0.0218;
261;0.2747;531;0.0252;
262;0.2575;532;0.0292;
263;0.2406;533;0.0338;
264;0.2243;534;0.0392;
265;0.2100;535;0.0447;
266;0.1976;536;0.0521;
267;0.1881;537;0.0602;
268;0.1806;538;0.0696;
269;0.1757;539;0.0804;
270;0.1720;540;0.0929;
271;0.1704;541;0.1068;
272;0.1700;542;0.1238;
273;0.1710;543;0.1404;
274;0.1723;544;0.1603;
275;0.1746;545;0.1814;
276;0.1773;546;0.2052;
277;0.1798;547;0.2308;
278;0.1827;548;0.2597;
279;0.1844;549;0.2907;
280;0.1860;550;0.3249;
281;0.1861;551;0.3566;
282;0.1858;552;0.3922;
283;0.1840;553;0.4343;
284;0.1814;554;0.4705;
285;0.1781;555;0.5120;
286;0.1743;556;0.5537;
287;0.1701;557;0.5993;
288;0.1660;558;0.6424;
289;0.1619;559;0.6805;
290;0.1587;560;0.7244;
291;0.1561;561;0.7610;
292;0.1532;562;0.7990;
293;0.1513;563;0.8298;
294;0.1495;564;0.8671;
295;0.1487;565;0.8945;
296;0.1483;566;0.9242;
297;0.1480;567;0.9430;
298;0.1477;568;0.9628;
299;0.1481;569;0.9790;
300;0.1486;570;0.9906;
301;0.1486;571;0.9931;
302;0.1494;572;1.0000;
303;0.1497;573;0.9951;
304;0.1496;574;0.9918;
305;0.1495;575;0.9814;
306;0.1486;576;0.9765;
307;0.1466;577;0.9625;
308;0.1435;578;0.9476;
309;0.1385;579;0.9222;
310;0.1332;580;0.9030;
311;0.1265;581;0.8795;
312;0.1196;582;0.8634;
313;0.1120;583;0.8336;
314;0.1041;584;0.8105;
315;0.0967;585;0.7810;
316;0.0897;586;0.7600;
317;0.0838;587;0.7278;
318;0.0777;588;0.7061;
319;0.0737;589;0.6736;
320;0.0685;590;0.6514;
321;0.0654;591;0.6235;
322;0.0630;592;0.6042;
323;0.0607;593;0.5751;
324;0.0591;594;0.5572;
325;0.0575;595;0.5316;
326;0.0576;596;0.5087;
327;0.0563;597;0.4879;
328;0.0577;598;0.4709;
329;0.0582;599;0.4490;
330;0.0600;600;0.4323;
331;0.0612;601;0.4133;
332;0.0637;602;0.3990;
333;0.0656;603;0.3817;
334;0.0675;604;0.3681;
335;0.0697;605;0.3531;
336;0.0713;606;0.3433;
337;0.0727;607;0.3276;
338;0.0737;608;0.3172;
339;0.0752;609;0.3055;
340;0.0761;610;0.2965;
341;0.0770;611;0.2841;
342;0.0781;612;0.2775;
343;0.0803;613;0.2669;
344;0.0829;614;0.2614;
345;0.0865;615;0.2505;
346;0.0903;616;0.2446;
347;0.0947;617;0.2364;
348;0.0994;618;0.2300;
349;0.1044;619;0.2215;
350;0.1087;620;0.2168;
351;0.1120;621;0.2095;
352;0.1142;622;0.2042;
353;0.1141;623;0.1971;
354;0.1127;624;0.1917;
355;0.1087;625;0.1847;
356;0.1039;626;0.1806;
357;0.0979;627;0.1736;
358;0.0913;628;0.1689;
359;0.0847;629;0.1630;
360;0.0779;630;0.1595;
361;0.0717;631;0.1519;
362;0.0657;632;0.1480;
363;0.0601;633;0.1421;
364;0.0546;634;0.1377;
365;0.0502;635;0.1321;
366;0.0462;636;0.1272;
367;0.0428;637;0.1225;
368;0.0393;638;0.1188;
369;0.0368;639;0.1138;
370;0.0346;640;0.1098;
371;0.0330;641;0.1054;
372;0.0313;642;0.1013;
373;0.0300;643;0.0968;
374;0.0289;644;0.0929;
375;0.0282;645;0.0882;
376;0.0274;646;0.0859;
377;0.0267;647;0.0823;
378;0.0263;648;0.0783;
379;0.0261;649;0.0755;
380;0.0259;650;0.0732;
381;0.0256;651;0.0689;
382;0.0256;652;0.0661;
383;0.0259;653;0.0630;
384;0.0261;654;0.0608;
385;0.0263;655;0.0582;
386;0.0268;656;0.0558;
387;0.0270;657;0.0533;
388;0.0277;658;0.0510;
389;0.0280;659;0.0483;
390;0.0288;660;0.0467;
391;0.0298;661;0.0447;
392;0.0299;662;0.0434;
393;0.0308;663;0.0407;
394;0.0313;664;0.0397;
395;0.0316;665;0.0376;
396;0.0319;666;0.0364;
397;0.0322;667;0.0343;
398;0.0323;668;0.0335;
399;0.0326;669;0.0319;
400;0.0325;670;0.0308;
401;0.0323;671;0.0292;
402;0.0323;672;0.0287;
403;0.0321;673;0.0273;
404;0.0316;674;0.0266;
405;0.0314;675;0.0254;
406;0.0310;676;0.0242;
407;0.0305;677;0.0232;
408;0.0302;678;0.0227;
409;0.0299;679;0.0219;
410;0.0297;680;0.0211;
411;0.0293;681;0.0202;
412;0.0290;682;0.0196;
413;0.0287;683;0.0191;
414;0.0286;684;0.0183;
415;0.0285;685;0.0176;
416;0.0284;686;0.0172;
417;0.0284;687;0.0165;
418;0.0282;688;0.0161;
419;0.0282;689;0.0156;
420;0.0281;690;0.0149;
421;0.0278;691;0.0143;
422;0.0274;692;0.0139;
423;0.0272;693;0.0136;
424;0.0268;694;0.0132;
425;0.0262;695;0.0128;
426;0.0256;696;0.0123;
427;0.0249;697;0.0119;
428;0.0242;698;0.0114;
429;0.0234;699;0.0110;
430;0.0224;700;0.0111;
431;0.0216;;;
432;0.0209;;;
433;0.0200;;;
434;0.0191;;;
435;0.0181;;;
436;0.0174;;;
437;0.0166;;;
438;0.0157;;;
439;0.0151;;;
440;0.0146;;;
441;0.0143;;;
442;0.0138;;;
443;0.0134;;;
444;0.0131;;;
445;0.0132;;;
446;0.0130;;;
447;0.0132;;;
448;0.0132;;;
449;0.0134;;;
450;0.0137;;;
451;0.0140;;;
452;0.0143;;;
453;0.0148;;;
454;0.0153;;;
455;0.0161;;;
456;0.0168;;;
457;0.0174;;;
458;0.0186;;;
459;0.0195;;;
460;0.0207;;;
461;0.0219;;;
462;0.0233;;;
463;0.0250;;;
464;0.0266;;;
465;0.0283;;;
466;0.0303;;;
467;0.0324;;;
468;0.0344;;;
469;0.0366;;;
470;0.0389;;;
471;0.0414;;;
472;0.0438;;;
473;0.0462;;;
474;0.0486;;;
475;0.0511;;;
476;0.0536;;;
477;0.0563;;;
478;0.0586;;;
479;0.0613;;;
480;0.0639;;;
481;0.0668;;;
482;0.0694;;;
483;0.0722;;;
484;0.0753;;;
485;0.0785;;;
486;0.0821;;;
487;0.0860;;;
488;0.0904;;;
489;0.0951;;;
490;0.1002;;;
491;0.1059;;;
492;0.1120;;;
493;0.1189;;;
494;0.1265;;;
495;0.1346;;;
496;0.1433;;;
497;0.1527;;;
498;0.1626;;;
499;0.1727;;;
500;0.1836;;;
501;0.1947;;;
502;0.2066;;;
503;0.2181;;;
504;0.2295;;;
505;0.2411;;;
506;0.2522;;;
507;0.2630;;;
508;0.2730;;;
509;0.2824;;;
510;0.2912;;;
511;0.2991;;;
512;0.3064;;;
513;0.3126;;;
514;0.3181;;;
515;0.3229;;;
516;0.3273;;;
517;0.3311;;;
518;0.3347;;;
519;0.3379;;;
520;0.3416;;;
521;0.3456;;;
522;0.3502;;;
523;0.3559;;;
524;0.3626;;;
525;0.3709;;;
526;0.3804;;;
527;0.3922;;;
528;0.4055;;;
529;0.4213;;;
530;0.4386;;;
531;0.4588;;;
532;0.4806;;;
533;0.5051;;;
534;0.5314;;;
535;0.5607;;;
536;0.5917;;;
537;0.6246;;;
538;0.6588;;;
539;0.6939;;;
540;0.7297;;;
541;0.7655;;;
542;0.8015;;;
543;0.8353;;;
544;0.8683;;;
545;0.8989;;;
546;0.9269;;;
547;0.9506;;;
548;0.9704;;;
549;0.9859;;;
550;0.9959;;;
551;1.0000;;;
552;0.9984;;;
553;0.9910;;;
554;0.9779;;;
555;0.9587;;;
556;0.9347;;;
557;0.9052;;;
558;0.8717;;;
559;0.8335;;;
560;0.7924;;;
561;0.7480;;;
562;0.7025;;;
563;0.6561;;;
564;0.6092;;;
565;0.5628;;;
566;0.5172;;;
567;0.4733;;;
568;0.4305;;;
569;0.3900;;;
570;0.3510;;;
571;0.3150;;;
572;0.2812;;;
573;0.2505;;;
574;0.2217;;;
575;0.1961;;;
576;0.1729;;;
577;0.1524;;;
578;0.1338;;;
579;0.1172;;;
580;0.1023;;;
581;0.0893;;;
582;0.0777;;;
583;0.0674;;;
584;0.0587;;;
585;0.0509;;;
586;0.0442;;;
587;0.0384;;;
588;0.0332;;;
589;0.0290;;;
590;0.0255;;;
591;0.0222;;;
592;0.0194;;;
593;0.0171;;;
594;0.0153;;;
595;0.0135;;;
596;0.0120;;;
597;0.0107;;;
598;0.0099;;;
599;0.0088;;;
600;0.0081;;;
601;0.0075;;;
602;0.0069;;;
603;0.0064;;;
604;0.0059;;;
605;0.0058;;;
606;0.0054;;;
607;0.0051;;;
608;0.0048;;;
609;0.0047;;;
610;0.0046;;;
611;0.0044;;;
612;0.0041;;;
613;0.0042;;;
614;0.0040;;;
615;0.0040;;;
616;0.0038;;;
617;0.0037;;;
618;0.0036;;;
619;0.0036;;;
620;0.0034;;;
621;0.0034;;;
622;0.0034;;;
623;0.0033;;;
624;0.0033;;;
625;0.0031;;;
626;0.0032;;;
627;0.0029;;;
628;0.0030;;;
629;0.0028;;;
630;0.0029;;;
631;0.0027;;;
632;0.0029;;;
633;0.0027;;;
634;0.0025;;;
635;0.0025;;;
636;0.0025;;;
637;0.0025;;;
638;0.0024;;;
639;0.0024;;;
640;0.0023;;;
641;0.0024;;;
642;0.0021;;;
643;0.0022;;;
644;0.0023;;;
645;0.0022;;;
646;0.0021;;;
647;0.0020;;;
648;0.0021;;;
649;0.0020;;;
650;0.0020;;;
651;0.0017;;;
652;0.0018;;;
653;0.0018;;;
654;0.0019;;;
655;0.0017;;;
656;0.0017;;;
657;0.0016;;;
658;0.0017;;;
659;0.0016;;;
660;0.0016;;;
661;0.0015;;;
662;0.0014;;;
663;0.0014;;;
664;0.0013;;;
665;0.0013;;;
666;0.0014;;;
667;0.0014;;;
668;0.0012;;;
669;0.0013;;;
670;0.0012;;;
671;0.0013;;;
672;0.0012;;;
673;0.0012;;;
674;0.0012;;;
675;0.0012;;;
676;0.0013;;;
677;0.0012;;;
678;0.0013;;;
679;0.0012;;;
680;0.0013;;;
681;0.0011;;;
682;0.0012;;;
683;0.0012;;;
684;0.0014;;;
685;0.0013;;;
686;0.0011;;;
687;0.0011;;;
688;0.0011;;;
689;0.0012;;;
690;0.0010;;;
691;0.0011;;;
692;0.0011;;;
693;0.0012;;;
694;0.0010;;;
695;0.0011;;;
696;0.0012;;;
697;0.0013;;;
698;0.0012;;;
699;0.0010;;;
700;0.0011;;;
701;0.0011;;;
702;0.0012;;;
703;0.0009;;;
704;0.0011;;;
705;0.0010;;;
706;0.0011;;;
707;0.0009;;;
708;0.0009;;;
709;0.0010;;;
710;0.0010;;;
711;0.0010;;;
712;0.0010;;;
713;0.0010;;;
714;0.0010;;;
715;0.0011;;;
716;0.0010;;;
717;0.0009;;;
718;0.0009;;;
719;0.0009;;;
720;0.0006;;;
721;0.0008;;;
722;0.0008;;;
723;0.0010;;;
724;0.0010;;;
725;0.0010;;;
726;0.0008;;;
727;0.0008;;;
728;0.0008;;;
729;0.0006;;;
730;0.0009;;;
731;0.0007;;;
732;0.0008;;;
733;0.0006;;;
734;0.0007;;;
735;0.0006;;;
736;0.0007;;;
737;0.0005;;;
738;0.0004;;;
739;0.0005;;;
740;0.0006;;;
741;0.0005;;;
742;0.0004;;;
743;0.0006;;;
744;0.0003;;;
745;0.0004;;;
746;0.0003;;;
747;0.0003;;;
748;0.0002;;;
749;0.0005;;;
750;0.0004;;;
751;0.0003;;;
752;0.0004;;;
753;0.0003;;;
754;0.0005;;;
755;0.0003;;;
756;0.0003;;;
757;0.0002;;;
758;0.0003;;;
759;0.0001;;;
760;0.0002;;;
761;0.0003;;;
762;0.0002;;;
763;0.0001;;;
764;0.0000;;;
765;0.0001;;;
766;0.0001;;;
767;0.0003;;;
768;0.0002;;;
769;0.0002;;;
770;0.0001;;;
771;0.0003;;;
772;0.0000;;;
773;0.0001;;;
774;0.0001;;;
775;0.0002;;;
776;0.0002;;;
777;0.0001;;;
778;0.0003;;;
779;0.0002;;;
780;0.0004;;;
781;0.0001;;;
782;0.0005;;;
783;0.0001;;;
784;0.0004;;;
785;0.0002;;;
786;0.0003;;;
787;0.0003;;;
788;0.0006;;;
789;0.0003;;;
790;0.0002;;;
791;0.0005;;;
792;0.0004;;;
793;0.0005;;;
794;0.0003;;;
795;0.0006;;;
796;0.0004;;;
797;0.0004;;;
798;0.0004;;;
799;0.0006;;;
800;0.0004;;;
801;0.0004;;;
802;0.0003;;;
803;0.0002;;;
804;0.0005;;;
805;0.0002;;;
806;0.0003;;;
807;0.0004;;;
808;0.0005;;;
809;0.0003;;;
810;0.0004;;;
811;0.0005;;;
812;0.0004;;;
813;0.0005;;;
814;0.0005;;;
815;0.0005;;;
816;0.0002;;;
817;0.0005;;;
818;0.0003;;;
819;0.0004;;;
820;0.0004;;;
821;0.0005;;;
822;0.0004;;;
823;0.0003;;;
824;0.0002;;;
825;0.0002;;;
826;0.0005;;;
827;0.0002;;;
828;0.0002;;;
829;0.0003;;;
830;0.0003;;;
831;0.0003;;;
832;0.0003;;;
833;0.0003;;;
834;0.0007;;;
835;0.0003;;;
836;0.0003;;;
837;0.0003;;;
838;0.0004;;;
839;0.0003;;;
840;0.0003;;;
841;0.0003;;;
842;0.0001;;;
843;0.0004;;;
844;0.0002;;;
845;0.0002;;;
846;0.0002;;;
847;0.0000;;;
848;-0.0002;;;
849;0.0001;;;
850;-0.0002;;;
851;0.0002;;;
852;0.0000;;;
853;0.0001;;;
854;-0.0001;;;
855;-0.0004;;;
856;-0.0001;;;
857;-0.0003;;;
858;-0.0001;;;
859;-0.0003;;;
860;-0.0002;;;
861;-0.0002;;;
862;-0.0002;;;
863;-0.0002;;;
864;-0.0001;;;
865;0.0005;;;
866;0.0007;;;
867;0.0004;;;
868;0.0006;;;
869;0.0002;;;
870;0.0004;;;
871;0.0010;;;
872;-0.0003;;;
873;0.0004;;;
874;-0.0006;;;
875;0.0005;;;
876;0.0010;;;
877;-0.0006;;;
878;0.0000;;;
879;0.0010;;;
880;0.0002;;;
881;0.0003;;;
882;0.0001;;;
883;-0.0004;;;
884;-0.0005;;;
885;-0.0006;;;
886;-0.0008;;;
887;0.0000;;;
888;0.0004;;;
889;0.0008;;;
890;0.0007;;;
891;-0.0011;;;
892;-0.0002;;;
893;-0.0001;;;
894;0.0000;;;
895;0.0001;;;
896;-0.0004;;;
897;0.0009;;;
898;-0.0004;;;
899;0.0009;;;
