Absorption wavelength (nm);normalized Absorption;emission wavelength (nm);Normalized emission;
220;0.5186;550;0.0260;
221;0.5492;551;0.0256;
222;0.5764;552;0.0290;
223;0.5987;553;0.0356;
224;0.6250;554;0.0428;
225;0.6472;555;0.0485;
226;0.6681;556;0.0454;
227;0.6870;557;0.0516;
228;0.7052;558;0.0552;
229;0.7135;559;0.0553;
230;0.7170;560;0.0583;
231;0.7142;561;0.0600;
232;0.6980;562;0.0780;
233;0.6724;563;0.0831;
234;0.6357;564;0.0866;
235;0.5837;565;0.0941;
236;0.5195;566;0.1105;
237;0.4650;567;0.1114;
238;0.4109;568;0.1292;
239;0.3572;569;0.1339;
240;0.3098;570;0.1466;
241;0.2647;571;0.1571;
242;0.2255;572;0.1715;
243;0.1923;573;0.1847;
244;0.1662;574;0.1912;
245;0.1455;575;0.1963;
246;0.1299;576;0.2168;
247;0.1182;577;0.2364;
248;0.1106;578;0.2470;
249;0.1048;579;0.2634;
250;0.1019;580;0.2812;
251;0.1000;581;0.2945;
252;0.0969;582;0.3210;
253;0.0979;583;0.3276;
254;0.0975;584;0.3720;
255;0.0996;585;0.4175;
256;0.1022;586;0.4152;
257;0.1042;587;0.4661;
258;0.1071;588;0.4804;
259;0.1100;589;0.5059;
260;0.1139;590;0.5058;
261;0.1199;591;0.5431;
262;0.1234;592;0.5736;
263;0.1289;593;0.6010;
264;0.1310;594;0.6676;
265;0.1360;595;0.6646;
266;0.1364;596;0.6816;
267;0.1393;597;0.7434;
268;0.1397;598;0.7814;
269;0.1412;599;0.7934;
270;0.1432;600;0.8378;
271;0.1457;601;0.8580;
272;0.1454;602;0.8656;
273;0.1472;603;0.8821;
274;0.1457;604;0.9168;
275;0.1460;605;0.9305;
276;0.1435;606;0.9579;
277;0.1399;607;0.9392;
278;0.1342;608;0.9842;
279;0.1280;609;0.9408;
280;0.1254;610;0.9949;
281;0.1199;611;0.9558;
282;0.1142;612;1.0000;
283;0.1086;613;0.9772;
284;0.1066;614;0.9360;
285;0.1014;615;0.9911;
286;0.0983;616;0.9640;
287;0.0948;617;0.9483;
288;0.0907;618;0.9099;
289;0.0875;619;0.9158;
290;0.0885;620;0.8870;
291;0.0855;621;0.8457;
292;0.0847;622;0.8498;
293;0.0818;623;0.8612;
294;0.0802;624;0.8473;
295;0.0756;625;0.8067;
296;0.0722;626;0.7999;
297;0.0673;627;0.7965;
298;0.0618;628;0.7238;
299;0.0557;629;0.7303;
300;0.0529;630;0.7225;
301;0.0484;631;0.7076;
302;0.0442;632;0.6765;
303;0.0416;633;0.6658;
304;0.0392;634;0.6443;
305;0.0369;635;0.6457;
306;0.0335;636;0.6386;
307;0.0336;637;0.6296;
308;0.0308;638;0.6312;
309;0.0299;639;0.6602;
310;0.0300;640;0.6273;
311;0.0321;641;0.6268;
312;0.0211;642;0.6060;
313;0.0280;643;0.5874;
314;0.0232;644;0.6270;
315;0.0241;645;0.5464;
316;0.0216;646;0.5570;
317;0.0211;647;0.5376;
318;0.0241;648;0.4957;
319;0.0166;649;0.5301;
320;0.0260;650;0.4961;
321;0.0194;651;0.5000;
322;0.0220;652;0.5067;
323;0.0191;653;0.4702;
324;0.0204;654;0.5034;
325;0.0200;655;0.4694;
326;0.0184;656;0.4791;
327;0.0218;657;0.4507;
328;0.0178;658;0.4684;
329;0.0190;659;0.4363;
330;0.0203;660;0.4205;
331;0.0222;661;0.4230;
332;0.0220;662;0.4053;
333;0.0192;663;0.3905;
334;0.0224;664;0.4025;
335;0.0231;665;0.4110;
336;0.0223;666;0.4018;
337;0.0235;667;0.3769;
338;0.0284;668;0.3884;
339;0.0252;669;0.3422;
340;0.0266;670;0.3584;
341;0.0273;671;0.3498;
342;0.0287;672;0.3475;
343;0.0313;673;0.3527;
344;0.0317;674;0.3430;
345;0.0364;675;0.3042;
346;0.0327;676;0.3279;
347;0.0374;677;0.2995;
348;0.0345;678;0.3258;
349;0.0377;679;0.2930;
350;0.0387;680;0.2860;
351;0.0381;681;0.2807;
352;0.0389;682;0.2715;
353;0.0395;683;0.2537;
354;0.0405;684;0.2626;
355;0.0397;685;0.2687;
356;0.0353;686;0.2396;
357;0.0367;687;0.2587;
358;0.0314;688;0.2326;
359;0.0332;689;0.2484;
360;0.0318;690;0.2002;
361;0.0304;691;0.2351;
362;0.0304;692;0.2114;
363;0.0296;693;0.2146;
364;0.0260;694;0.2163;
365;0.0254;695;0.1835;
366;0.0219;696;0.2064;
367;0.0216;697;0.1998;
368;0.0223;698;0.1725;
369;0.0201;699;0.1747;
370;0.0152;700;0.1831;
371;0.0158;701;0.1862;
372;0.0163;702;0.1625;
373;0.0120;703;0.1744;
374;0.0128;704;0.1806;
375;0.0105;705;0.1556;
376;0.0113;706;0.1694;
377;0.0078;707;0.1571;
378;0.0087;708;0.1654;
379;0.0069;709;0.1532;
380;0.0055;710;0.1264;
381;0.0048;711;0.1501;
382;0.0054;712;0.1569;
383;0.0021;713;0.1090;
384;0.0004;714;0.1086;
428;0.0006;715;0.1413;
429;0.0004;716;0.1443;
430;0.0008;717;0.0974;
431;0.0014;718;0.0843;
432;0.0015;719;0.1037;
433;0.0019;720;0.1190;
434;0.0043;721;0.1186;
435;0.0028;722;0.1120;
436;0.0046;723;0.0914;
437;0.0041;724;0.1339;
438;0.0062;725;0.0966;
439;0.0058;726;0.1009;
440;0.0071;727;0.0760;
441;0.0077;728;0.0689;
442;0.0081;729;0.0758;
443;0.0084;730;0.0928;
444;0.0108;731;0.0988;
445;0.0076;732;0.1150;
446;0.0088;733;0.0785;
447;0.0132;734;0.0699;
448;0.0119;735;0.1026;
449;0.0121;736;0.1253;
450;0.0140;737;0.1052;
451;0.0142;738;0.0710;
452;0.0159;739;0.0676;
453;0.0161;740;0.1091;
454;0.0167;741;0.0894;
455;0.0172;742;0.0834;
456;0.0170;743;0.0655;
457;0.0177;744;0.0490;
458;0.0178;745;0.0551;
459;0.0189;746;0.0539;
460;0.0182;747;0.0592;
461;0.0179;748;0.0666;
462;0.0189;749;0.0683;
463;0.0170;750;0.0808;
464;0.0183;;;
465;0.0171;;;
466;0.0167;;;
467;0.0175;;;
468;0.0150;;;
469;0.0166;;;
470;0.0146;;;
471;0.0152;;;
472;0.0176;;;
473;0.0166;;;
474;0.0175;;;
475;0.0169;;;
476;0.0167;;;
477;0.0191;;;
478;0.0183;;;
479;0.0180;;;
480;0.0205;;;
481;0.0220;;;
482;0.0224;;;
483;0.0246;;;
484;0.0271;;;
485;0.0275;;;
486;0.0310;;;
487;0.0339;;;
488;0.0362;;;
489;0.0361;;;
490;0.0381;;;
491;0.0421;;;
492;0.0448;;;
493;0.0479;;;
494;0.0507;;;
495;0.0540;;;
496;0.0565;;;
497;0.0613;;;
498;0.0657;;;
499;0.0694;;;
500;0.0717;;;
501;0.0762;;;
502;0.0812;;;
503;0.0861;;;
504;0.0889;;;
505;0.0957;;;
506;0.1025;;;
507;0.1056;;;
508;0.1121;;;
509;0.1164;;;
510;0.1228;;;
511;0.1291;;;
512;0.1335;;;
513;0.1435;;;
514;0.1488;;;
515;0.1570;;;
516;0.1690;;;
517;0.1782;;;
518;0.1863;;;
519;0.1952;;;
520;0.2047;;;
521;0.2130;;;
522;0.2239;;;
523;0.2370;;;
524;0.2479;;;
525;0.2586;;;
526;0.2699;;;
527;0.2818;;;
528;0.2948;;;
529;0.3072;;;
530;0.3208;;;
531;0.3309;;;
532;0.3440;;;
533;0.3556;;;
534;0.3675;;;
535;0.3756;;;
536;0.3868;;;
537;0.3983;;;
538;0.4094;;;
539;0.4183;;;
540;0.4304;;;
541;0.4397;;;
542;0.4506;;;
543;0.4621;;;
544;0.4743;;;
545;0.4847;;;
546;0.4958;;;
547;0.5047;;;
548;0.5204;;;
549;0.5308;;;
550;0.5457;;;
551;0.5589;;;
552;0.5744;;;
553;0.5883;;;
554;0.6041;;;
555;0.6219;;;
556;0.6430;;;
557;0.6613;;;
558;0.6816;;;
559;0.7025;;;
560;0.7206;;;
561;0.7450;;;
562;0.7673;;;
563;0.7905;;;
564;0.8133;;;
565;0.8374;;;
566;0.8605;;;
567;0.8845;;;
568;0.9057;;;
569;0.9273;;;
570;0.9467;;;
571;0.9638;;;
572;0.9774;;;
573;0.9860;;;
574;0.9907;;;
575;1.0000;;;
576;0.9998;;;
577;0.9944;;;
578;0.9898;;;
579;0.9788;;;
580;0.9677;;;
581;0.9484;;;
582;0.9365;;;
583;0.9147;;;
584;0.8945;;;
585;0.8702;;;
586;0.8471;;;
587;0.8223;;;
588;0.7909;;;
589;0.7642;;;
590;0.7319;;;
591;0.6995;;;
592;0.6661;;;
593;0.6311;;;
594;0.5987;;;
595;0.5561;;;
596;0.5150;;;
597;0.4826;;;
598;0.4488;;;
599;0.4158;;;
600;0.3869;;;
601;0.3567;;;
602;0.3292;;;
603;0.3036;;;
604;0.2785;;;
605;0.2536;;;
606;0.2305;;;
607;0.2104;;;
608;0.1907;;;
609;0.1714;;;
610;0.1553;;;
611;0.1401;;;
612;0.1285;;;
613;0.1139;;;
614;0.1088;;;
615;0.0975;;;
616;0.0858;;;
617;0.0746;;;
618;0.0682;;;
619;0.0606;;;
620;0.0534;;;
621;0.0472;;;
622;0.0446;;;
623;0.0372;;;
624;0.0334;;;
625;0.0316;;;
626;0.0254;;;
627;0.0225;;;
628;0.0198;;;
629;0.0176;;;
630;0.0163;;;
631;0.0126;;;
632;0.0131;;;
633;0.0101;;;
634;0.0108;;;
635;0.0064;;;
636;0.0082;;;
637;0.0071;;;
638;0.0057;;;
639;0.0048;;;
640;0.0043;;;
641;0.0030;;;
642;0.0024;;;
643;0.0018;;;
644;0.0020;;;
645;0.0010;;;
