Exitation wavelength (nm);normalized Exitation;emission wavelength (nm);Normalized emission;
300;0.1880;482;0.0010;
301;0.1940;483;0.0010;
302;0.2020;484;0.0010;
303;0.2080;485;0.0010;
304;0.2170;486;0.0010;
305;0.2220;487;0.0020;
306;0.2270;488;0.0020;
307;0.2350;489;0.0030;
308;0.2390;490;0.0040;
309;0.2440;491;0.0050;
310;0.2480;492;0.0060;
311;0.2500;493;0.0070;
312;0.2530;494;0.0090;
313;0.2540;495;0.0120;
314;0.2540;496;0.0140;
315;0.2540;497;0.0190;
316;0.2550;498;0.0310;
317;0.2560;499;0.0710;
318;0.2520;500;0.0960;
319;0.2510;501;0.0770;
320;0.2490;502;0.0590;
321;0.2440;503;0.0680;
322;0.2400;504;0.0820;
323;0.2360;505;0.1000;
324;0.2290;506;0.1200;
325;0.2230;507;0.1460;
326;0.2180;508;0.1720;
327;0.2130;509;0.2050;
328;0.2060;510;0.2440;
329;0.1990;511;0.2810;
330;0.1930;512;0.3270;
331;0.1840;513;0.3750;
332;0.1770;514;0.4270;
333;0.1710;515;0.4770;
334;0.1630;516;0.5330;
335;0.1560;517;0.5900;
336;0.1470;518;0.6430;
337;0.1420;519;0.6980;
338;0.1330;520;0.7480;
339;0.1250;521;0.7990;
340;0.1180;522;0.8400;
341;0.1110;523;0.8770;
342;0.1040;524;0.9120;
343;0.0970;525;0.9420;
344;0.0910;526;0.9650;
345;0.0850;527;0.9800;
346;0.0790;528;0.9940;
347;0.0730;529;1.0000;
348;0.0690;530;0.9980;
349;0.0650;531;1.0000;
350;0.0610;532;0.9920;
351;0.0580;533;0.9860;
352;0.0540;534;0.9700;
353;0.0510;535;0.9540;
354;0.0490;536;0.9380;
355;0.0470;537;0.9180;
356;0.0450;538;0.8970;
357;0.0430;539;0.8710;
358;0.0410;540;0.8470;
359;0.0400;541;0.8260;
360;0.0390;542;0.8010;
361;0.0380;543;0.7760;
362;0.0370;544;0.7500;
363;0.0370;545;0.7260;
364;0.0360;546;0.7010;
365;0.0360;547;0.6790;
366;0.0350;548;0.6530;
367;0.0350;549;0.6330;
368;0.0350;550;0.6080;
369;0.0350;551;0.5900;
370;0.0340;552;0.5720;
371;0.0340;553;0.5540;
372;0.0330;554;0.5350;
373;0.0330;555;0.5170;
374;0.0330;556;0.4970;
375;0.0320;557;0.4850;
376;0.0320;558;0.4710;
377;0.0320;559;0.4590;
378;0.0310;560;0.4470;
379;0.0310;561;0.4350;
380;0.0300;562;0.4240;
381;0.0300;563;0.4130;
382;0.0290;564;0.4030;
383;0.0280;565;0.3940;
384;0.0270;566;0.3840;
385;0.0270;567;0.3760;
386;0.0260;568;0.3660;
387;0.0250;569;0.3580;
388;0.0250;570;0.3490;
389;0.0240;571;0.3400;
390;0.0230;572;0.3320;
391;0.0220;573;0.3240;
392;0.0220;574;0.3150;
393;0.0210;575;0.3070;
394;0.0210;576;0.2980;
395;0.0200;577;0.2910;
396;0.0190;578;0.2820;
397;0.0190;579;0.2730;
398;0.0180;580;0.2630;
399;0.0180;581;0.2560;
400;0.0170;582;0.2480;
401;0.0160;583;0.2400;
402;0.0160;584;0.2330;
403;0.0160;585;0.2240;
404;0.0150;586;0.2170;
405;0.0150;587;0.2100;
406;0.0150;588;0.2020;
407;0.0140;589;0.1940;
408;0.0140;590;0.1870;
409;0.0140;591;0.1810;
410;0.0140;592;0.1740;
411;0.0140;593;0.1680;
412;0.0140;594;0.1620;
413;0.0140;595;0.1550;
414;0.0140;596;0.1500;
415;0.0140;597;0.1440;
416;0.0150;598;0.1380;
417;0.0150;599;0.1320;
418;0.0150;600;0.1290;
419;0.0150;601;0.1230;
420;0.0160;602;0.1180;
421;0.0170;603;0.1140;
422;0.0180;604;0.1110;
423;0.0180;605;0.1070;
424;0.0190;606;0.1020;
425;0.0200;607;0.0980;
426;0.0210;608;0.0950;
427;0.0230;609;0.0910;
428;0.0240;610;0.0880;
429;0.0260;611;0.0850;
430;0.0270;612;0.0830;
431;0.0290;613;0.0800;
432;0.0320;614;0.0770;
433;0.0340;615;0.0740;
434;0.0360;616;0.0720;
435;0.0380;617;0.0680;
436;0.0410;618;0.0660;
437;0.0430;619;0.0650;
438;0.0470;620;0.0620;
439;0.0490;621;0.0610;
440;0.0520;622;0.0580;
441;0.0540;623;0.0580;
442;0.0580;624;0.0550;
443;0.0610;625;0.0530;
444;0.0640;626;0.0520;
445;0.0680;627;0.0500;
446;0.0710;628;0.0470;
447;0.0760;629;0.0460;
448;0.0790;630;0.0450;
449;0.0830;631;0.0440;
450;0.0870;632;0.0410;
451;0.0930;633;0.0410;
452;0.0980;634;0.0390;
453;0.1030;635;0.0380;
454;0.1100;636;0.0370;
455;0.1160;637;0.0360;
456;0.1240;638;0.0340;
457;0.1320;639;0.0340;
458;0.1410;640;0.0320;
459;0.1500;641;0.0320;
460;0.1610;642;0.0300;
461;0.1710;643;0.0290;
462;0.1820;644;0.0280;
463;0.1930;645;0.0270;
464;0.2050;646;0.0260;
465;0.2190;647;0.0250;
466;0.2310;648;0.0240;
467;0.2440;649;0.0230;
468;0.2540;650;0.0230;
469;0.2680;651;0.0220;
470;0.2800;652;0.0220;
471;0.2910;653;0.0200;
472;0.3030;654;0.0200;
473;0.3130;655;0.0190;
474;0.3220;656;0.0180;
475;0.3310;657;0.0180;
476;0.3390;658;0.0170;
477;0.3480;659;0.0160;
478;0.3550;660;0.0160;
479;0.3620;661;0.0150;
480;0.3690;662;0.0150;
481;0.3760;663;0.0140;
482;0.3830;664;0.0140;
483;0.3920;665;0.0130;
484;0.4020;666;0.0130;
485;0.4130;667;0.0130;
486;0.4260;668;0.0120;
487;0.4400;669;0.0110;
488;0.4580;670;0.0110;
489;0.4780;671;0.0110;
490;0.4980;672;0.0100;
491;0.5210;673;0.0100;
492;0.5450;674;0.0100;
493;0.5720;675;0.0090;
494;0.6030;676;0.0090;
495;0.6350;677;0.0090;
496;0.6680;678;0.0080;
497;0.7020;679;0.0080;
498;0.7370;680;0.0080;
499;0.7730;681;0.0080;
500;0.8100;682;0.0080;
501;0.8410;683;0.0070;
502;0.8760;684;0.0070;
503;0.9050;685;0.0070;
504;0.9350;686;0.0070;
505;0.9610;687;0.0070;
506;0.9790;688;0.0060;
507;0.9950;689;0.0060;
508;0.9990;690;0.0060;
509;1.0000;691;0.0060;
510;0.9960;692;0.0060;
511;0.9810;693;0.0060;
512;0.9590;694;0.0050;
513;0.9300;695;0.0050;
514;0.8910;696;0.0050;
515;0.8530;697;0.0050;
516;0.8060;698;0.0050;
517;0.7520;699;0.0040;
518;0.7000;700;0.0050;
519;0.6440;;;
520;0.5870;;;
521;0.5270;;;
522;0.4760;;;
523;0.4230;;;
524;0.3740;;;
525;0.3280;;;
526;0.2860;;;
527;0.2510;;;
528;0.2160;;;
529;0.1860;;;
530;0.1560;;;
531;0.1340;;;
532;0.1150;;;
533;0.0970;;;
534;0.0820;;;
535;0.0680;;;
536;0.0590;;;
537;0.0490;;;
538;0.0440;;;
539;0.0560;;;
540;0.0750;;;
541;0.0590;;;
542;0.0290;;;
543;0.0170;;;
544;0.0140;;;
545;0.0120;;;
546;0.0100;;;
547;0.0080;;;
548;0.0070;;;
549;0.0060;;;
