Exitation wavelength (nm);normalized Exitation;emission wavelength (nm);Normalized emission;
600;0.0264;602;0.0000;
601;0.0258;606;0.0000;
602;0.0263;607;0.0000;
603;0.0267;614;0.0000;
604;0.0276;615;0.0000;
605;0.0283;617;0.0000;
606;0.0296;618;0.0000;
607;0.0305;619;0.0000;
608;0.0312;623;0.0000;
609;0.0326;630;0.0000;
610;0.0335;631;0.0000;
611;0.0342;633;0.0000;
612;0.0355;638;0.0000;
613;0.0366;639;0.0000;
614;0.0372;641;0.0000;
615;0.0385;644;0.0000;
616;0.0400;645;0.0000;
617;0.0412;648;0.0000;
618;0.0416;652;0.0000;
619;0.0427;653;0.0000;
620;0.0445;654;0.0000;
621;0.0457;656;0.0000;
622;0.0472;657;0.0000;
623;0.0478;659;0.0000;
624;0.0489;660;0.0000;
625;0.0505;661;0.0000;
626;0.0518;663;0.0000;
627;0.0529;665;0.0000;
628;0.0538;666;0.0000;
629;0.0550;667;0.0000;
630;0.0558;668;0.0000;
631;0.0575;669;0.0000;
632;0.0586;671;0.0001;
633;0.0592;672;0.0000;
634;0.0614;673;0.0000;
635;0.0623;674;0.0001;
636;0.0627;675;0.0000;
637;0.0651;676;0.0000;
638;0.0667;677;0.0000;
639;0.0684;678;0.0000;
640;0.0687;679;0.0000;
641;0.0714;680;0.0000;
642;0.0719;681;0.0000;
643;0.0736;682;0.0000;
644;0.0753;683;0.0000;
645;0.0761;684;0.0000;
646;0.0790;685;0.0000;
647;0.0818;686;0.0000;
648;0.0839;687;0.0001;
649;0.0847;688;0.0000;
650;0.0880;689;0.0000;
651;0.0888;690;0.0000;
652;0.0910;691;0.0001;
653;0.0935;692;0.0001;
654;0.0943;693;0.0001;
655;0.0961;694;0.0001;
656;0.0989;695;0.0001;
657;0.1010;696;0.0002;
658;0.1040;697;0.0001;
659;0.1053;698;0.0002;
660;0.1092;699;0.0003;
661;0.1115;700;0.0004;
662;0.1154;701;0.0005;
663;0.1173;702;0.0005;
664;0.1211;703;0.0005;
665;0.1247;704;0.0006;
666;0.1279;705;0.0008;
667;0.1316;706;0.0010;
668;0.1362;707;0.0012;
669;0.1394;708;0.0016;
670;0.1406;709;0.0017;
671;0.1442;710;0.0024;
672;0.1505;711;0.0028;
673;0.1520;712;0.0028;
674;0.1578;713;0.0039;
675;0.1606;714;0.0042;
676;0.1642;715;0.0050;
677;0.1701;716;0.0055;
678;0.1724;717;0.0063;
679;0.1797;718;0.0070;
680;0.1803;719;0.0089;
681;0.1861;720;0.0099;
682;0.1940;721;0.0110;
683;0.2013;722;0.0119;
684;0.2004;723;0.0144;
685;0.2083;724;0.0162;
686;0.2116;725;0.0175;
687;0.2168;726;0.0189;
688;0.2212;727;0.0207;
689;0.2240;728;0.0236;
690;0.2257;729;0.0263;
691;0.2211;730;0.0288;
692;0.2279;731;0.0326;
693;0.2290;732;0.0362;
694;0.2267;733;0.0410;
695;0.2353;734;0.0438;
696;0.2362;735;0.0477;
697;0.2369;736;0.0523;
698;0.2372;737;0.0587;
699;0.2348;738;0.0636;
700;0.2400;739;0.0680;
701;0.2360;740;0.0761;
702;0.2438;741;0.0867;
703;0.2510;742;0.0934;
704;0.2478;743;0.1011;
705;0.2474;744;0.1136;
706;0.2506;745;0.1201;
707;0.2593;746;0.1321;
708;0.2624;747;0.1418;
709;0.2593;748;0.1583;
710;0.2638;749;0.1710;
711;0.2762;750;0.1816;
712;0.2794;751;0.1993;
713;0.2783;752;0.2215;
714;0.2834;753;0.2346;
715;0.2868;754;0.2570;
716;0.2965;755;0.2701;
717;0.2950;756;0.2904;
718;0.2957;757;0.3204;
719;0.3004;758;0.3422;
720;0.3016;759;0.3678;
721;0.3112;760;0.3814;
722;0.3240;761;0.4109;
723;0.3272;762;0.4377;
724;0.3328;763;0.4637;
725;0.3466;764;0.4957;
726;0.3575;765;0.5256;
727;0.3662;766;0.5511;
728;0.3807;767;0.5740;
729;0.3946;768;0.6111;
730;0.4091;769;0.6303;
731;0.4249;770;0.6513;
732;0.4371;771;0.6967;
733;0.4586;772;0.7038;
734;0.4750;773;0.7412;
735;0.4810;774;0.7641;
736;0.4935;775;0.7838;
737;0.5151;776;0.7936;
738;0.5321;777;0.8385;
739;0.5408;778;0.8574;
740;0.5582;779;0.8840;
741;0.5934;780;0.8946;
742;0.6084;781;0.9258;
743;0.6324;782;0.9511;
744;0.6358;783;0.9720;
745;0.6513;784;0.9724;
746;0.6880;785;0.9916;
747;0.7046;786;0.9882;
748;0.7176;787;0.9939;
749;0.7355;788;0.9958;
750;0.7349;789;1.0000;
751;0.7530;790;0.9986;
752;0.7794;791;0.9904;
753;0.7806;792;0.9973;
754;0.7913;793;0.9950;
755;0.8060;794;0.9587;
756;0.8380;795;0.9543;
757;0.8384;796;0.9419;
758;0.8915;797;0.9439;
759;0.9103;798;0.9338;
760;0.9415;799;0.8953;
761;0.9624;800;0.8774;
762;0.9793;801;0.8665;
763;1.0000;802;0.8333;
764;0.9924;803;0.8257;
765;0.9787;804;0.7904;
766;0.9803;805;0.7665;
767;0.9288;806;0.7373;
768;0.8990;807;0.7165;
769;0.8645;808;0.7007;
770;0.8140;809;0.6660;
771;0.7831;810;0.6442;
772;0.7467;811;0.6147;
773;0.7188;812;0.5960;
774;0.6843;813;0.5761;
775;0.6412;814;0.5451;
776;0.6206;815;0.5205;
777;0.6129;816;0.4926;
778;0.5696;817;0.4701;
779;0.5765;818;0.4521;
780;0.5515;819;0.4410;
781;0.5230;820;0.4170;
782;0.5038;821;0.3985;
783;0.4737;822;0.3840;
784;0.4806;823;0.3678;
785;0.4690;824;0.3572;
786;0.4302;825;0.3384;
787;0.4310;826;0.3229;
788;0.4155;827;0.3073;
789;0.3892;828;0.2990;
790;0.3655;829;0.2874;
791;0.3380;830;0.2673;
792;0.3290;831;0.2618;
793;0.3130;832;0.2524;
794;0.2826;833;0.2366;
795;0.2576;834;0.2226;
796;0.2400;835;0.2194;
797;0.2271;836;0.2074;
798;0.2136;837;0.2040;
799;0.1932;838;0.1989;
800;0.1763;839;0.1874;
801;0.1605;840;0.1841;
802;0.1494;841;0.1752;
803;0.1374;842;0.1678;
804;0.1215;843;0.1674;
805;0.1098;844;0.1618;
806;0.1014;845;0.1524;
807;0.0915;846;0.1468;
808;0.0836;847;0.1428;
809;0.0764;848;0.1329;
810;0.0694;849;0.1330;
811;0.0630;850;0.1289;
812;0.0552;851;0.1239;
813;0.0470;852;0.1203;
814;0.0421;853;0.1147;
815;0.0385;854;0.1105;
816;0.0367;855;0.1067;
817;0.0353;856;0.1020;
818;0.0350;857;0.0986;
819;0.0348;858;0.0954;
820;0.0358;859;0.0934;
821;0.0371;860;0.0859;
822;0.0366;861;0.0800;
823;0.0366;862;0.0782;
824;0.0362;863;0.0739;
825;0.0347;864;0.0691;
826;0.0331;865;0.0669;
827;0.0308;866;0.0630;
828;0.0291;867;0.0590;
829;0.0260;868;0.0572;
830;0.0226;869;0.0516;
831;0.0201;870;0.0478;
832;0.0165;871;0.0463;
833;0.0139;872;0.0437;
834;0.0129;873;0.0388;
835;0.0106;874;0.0362;
836;0.0091;875;0.0342;
837;0.0078;876;0.0302;
838;0.0063;877;0.0274;
839;0.0051;878;0.0249;
840;0.0040;879;0.0216;
841;0.0033;880;0.0201;
842;0.0025;881;0.0175;
843;0.0020;882;0.0157;
844;0.0017;883;0.0137;
845;0.0012;884;0.0122;
846;0.0012;885;0.0104;
847;0.0008;886;0.0091;
848;0.0007;887;0.0077;
849;0.0007;888;0.0061;
850;0.0006;889;0.0052;
851;0.0007;890;0.0043;
852;0.0006;891;0.0035;
853;0.0004;892;0.0029;
854;0.0004;893;0.0022;
855;0.0002;894;0.0018;
856;0.0005;895;0.0014;
857;0.0004;896;0.0009;
858;0.0005;897;0.0007;
859;0.0005;898;0.0006;
860;0.0003;899;0.0003;
861;0.0003;900;0.0004;
862;0.0004;;;
863;0.0005;;;
864;0.0006;;;
865;0.0004;;;
866;0.0005;;;
867;0.0005;;;
868;0.0004;;;
869;0.0003;;;
870;0.0003;;;
871;0.0003;;;
872;0.0004;;;
873;0.0005;;;
874;0.0003;;;
875;0.0003;;;
876;0.0003;;;
877;0.0004;;;
878;0.0003;;;
879;0.0004;;;
880;0.0004;;;
881;0.0004;;;
882;0.0005;;;
883;0.0003;;;
884;0.0004;;;
885;0.0005;;;
886;0.0004;;;
887;0.0003;;;
888;0.0002;;;
889;0.0002;;;
890;0.0005;;;
891;0.0004;;;
892;0.0003;;;
893;0.0003;;;
894;0.0003;;;
895;0.0002;;;
896;0.0002;;;
897;0.0002;;;
898;0.0002;;;
899;0.0002;;;
