Absorption wavelength (nm);normalized Absorption;emission wavelength (nm);Normalized emission;
220;0.8459;600;0.0026;
221;0.8128;601;0.0038;
222;0.7827;602;0.0025;
223;0.7558;603;0.0026;
224;0.7334;604;0.0016;
225;0.7103;605;0.0027;
226;0.6888;606;0.0018;
227;0.6649;607;0.0024;
228;0.6387;608;0.0028;
229;0.6109;609;0.0024;
230;0.5809;610;0.0034;
231;0.5470;611;0.0050;
232;0.5092;612;0.0059;
233;0.4684;613;0.0056;
234;0.4268;614;0.0060;
235;0.3837;615;0.0079;
236;0.3428;616;0.0090;
237;0.3059;617;0.0098;
238;0.2720;618;0.0073;
239;0.2427;619;0.0078;
240;0.2188;620;0.0131;
241;0.1972;621;0.0088;
242;0.1810;622;0.0137;
243;0.1672;623;0.0157;
244;0.1556;624;0.0182;
245;0.1448;625;0.0259;
246;0.1364;626;0.0475;
247;0.1287;627;0.0743;
248;0.1225;628;0.1254;
249;0.1179;629;0.1636;
250;0.1133;630;0.2054;
251;0.1086;631;0.2213;
252;0.1048;632;0.2190;
253;0.1025;633;0.1928;
254;0.1009;634;0.1557;
255;0.0986;635;0.1022;
256;0.0978;636;0.0728;
257;0.0963;637;0.0566;
258;0.0955;638;0.0410;
259;0.0963;639;0.0403;
260;0.0963;640;0.0372;
261;0.0978;641;0.0375;
262;0.0986;642;0.0371;
263;0.1002;643;0.0438;
264;0.1017;644;0.0473;
265;0.1032;645;0.0527;
266;0.1055;646;0.0560;
267;0.1079;647;0.0507;
268;0.1109;648;0.0608;
269;0.1133;649;0.0591;
270;0.1156;650;0.0637;
271;0.1179;651;0.0672;
272;0.1210;652;0.0694;
273;0.1233;653;0.0704;
274;0.1248;654;0.0762;
275;0.1271;655;0.0804;
276;0.1302;656;0.0794;
277;0.1325;657;0.0803;
278;0.1325;658;0.0821;
279;0.1341;659;0.0783;
280;0.1341;660;0.0761;
281;0.1325;661;0.0734;
282;0.1294;662;0.0735;
283;0.1271;663;0.0750;
284;0.1248;664;0.0732;
285;0.1233;665;0.0677;
286;0.1233;666;0.0653;
287;0.1210;667;0.0576;
288;0.1156;668;0.0545;
289;0.1086;669;0.0545;
290;0.1009;670;0.0481;
291;0.0932;671;0.0482;
292;0.0871;672;0.0456;
293;0.0840;673;0.0390;
294;0.0809;674;0.0392;
295;0.0786;675;0.0373;
296;0.0763;676;0.0400;
297;0.0755;677;0.0288;
298;0.0747;678;0.0270;
299;0.0740;679;0.0240;
300;0.0732;680;0.0247;
301;0.0724;681;0.0230;
302;0.0716;682;0.0220;
303;0.0701;683;0.0231;
304;0.0693;684;0.0195;
305;0.0686;685;0.0212;
306;0.0678;686;0.0204;
307;0.0678;687;0.0184;
308;0.0670;688;0.0198;
309;0.0663;689;0.0180;
310;0.0655;690;0.0188;
311;0.0655;691;0.0187;
312;0.0647;692;0.0164;
313;0.0655;693;0.0157;
314;0.0647;694;0.0169;
315;0.0655;695;0.0173;
316;0.0655;696;0.0159;
317;0.0655;697;0.0180;
318;0.0670;698;0.0141;
319;0.0670;699;0.0138;
320;0.0663;700;0.0167;
321;0.0686;701;0.0165;
322;0.0693;702;0.0149;
323;0.0693;703;0.0148;
324;0.0709;704;0.0149;
325;0.0709;705;0.0161;
326;0.0716;706;0.0154;
327;0.0724;707;0.0159;
328;0.0724;708;0.0136;
329;0.0747;709;0.0169;
330;0.0763;710;0.0179;
331;0.0763;711;0.0201;
332;0.0786;712;0.0154;
333;0.0809;713;0.0171;
334;0.0809;714;0.0189;
335;0.0817;715;0.0223;
336;0.0832;716;0.0209;
337;0.0855;717;0.0239;
338;0.0871;718;0.0223;
339;0.0901;719;0.0237;
340;0.0909;720;0.0246;
341;0.0932;721;0.0297;
342;0.0948;722;0.0268;
343;0.0955;723;0.0332;
344;0.0963;724;0.0332;
345;0.0978;725;0.0363;
346;0.0994;726;0.0383;
347;0.1009;727;0.0456;
348;0.1002;728;0.0413;
349;0.1017;729;0.0535;
350;0.1025;730;0.0540;
351;0.1025;731;0.0632;
352;0.1032;732;0.0637;
353;0.1040;733;0.0673;
354;0.1040;734;0.0761;
355;0.1040;735;0.0804;
356;0.1040;736;0.0906;
357;0.1040;737;0.1028;
358;0.1032;738;0.1066;
359;0.1025;739;0.1220;
360;0.1025;740;0.1278;
361;0.1017;741;0.1428;
362;0.1017;742;0.1496;
363;0.1009;743;0.1668;
364;0.1009;744;0.1834;
365;0.1009;745;0.1970;
366;0.1009;746;0.2170;
367;0.1017;747;0.2317;
368;0.1025;748;0.2407;
369;0.1025;749;0.2703;
370;0.1025;750;0.3000;
371;0.1009;751;0.3062;
372;0.0994;752;0.3224;
373;0.0978;753;0.3649;
374;0.0955;754;0.3945;
375;0.0917;755;0.4146;
376;0.0894;756;0.4318;
377;0.0863;757;0.4608;
378;0.0824;758;0.4866;
379;0.0794;759;0.5264;
380;0.0770;760;0.5394;
381;0.0732;761;0.5817;
382;0.0716;762;0.5981;
383;0.0701;763;0.6377;
384;0.0655;764;0.6643;
385;0.0632;765;0.7025;
386;0.0624;766;0.7425;
387;0.0601;767;0.7583;
388;0.0601;768;0.7952;
389;0.0578;769;0.7966;
390;0.0570;770;0.8410;
391;0.0555;771;0.8467;
392;0.0547;772;0.8722;
393;0.0547;773;0.9064;
394;0.0539;774;0.9287;
395;0.0539;775;0.9098;
396;0.0539;776;0.9683;
397;0.0524;777;0.9670;
398;0.0524;778;0.9663;
399;0.0524;779;0.9892;
400;0.0532;780;0.9797;
401;0.0524;781;1.0000;
402;0.0516;782;0.9679;
403;0.0516;783;0.9807;
404;0.0516;784;0.9459;
405;0.0516;785;0.9657;
406;0.0508;786;0.9572;
407;0.0508;787;0.9281;
408;0.0501;788;0.9045;
409;0.0493;789;0.9059;
410;0.0493;790;0.8706;
411;0.0485;791;0.8571;
412;0.0485;792;0.8176;
413;0.0478;793;0.8011;
414;0.0478;794;0.7932;
415;0.0478;795;0.7497;
416;0.0470;796;0.7388;
417;0.0478;797;0.7059;
418;0.0470;798;0.6775;
419;0.0470;799;0.6456;
420;0.0462;800;0.6234;
421;0.0470;801;0.6003;
422;0.0470;802;0.5824;
423;0.0462;803;0.5478;
424;0.0455;804;0.5262;
425;0.0447;805;0.5060;
426;0.0439;806;0.4882;
427;0.0424;807;0.4499;
428;0.0424;808;0.4295;
429;0.0416;809;0.4058;
430;0.0401;810;0.3940;
431;0.0378;811;0.3708;
432;0.0362;812;0.3485;
433;0.0347;813;0.3250;
434;0.0324;814;0.3131;
435;0.0316;815;0.2938;
436;0.0293;816;0.2705;
437;0.0277;817;0.2659;
438;0.0262;818;0.2438;
439;0.0247;819;0.2332;
440;0.0231;820;0.2200;
441;0.0216;821;0.2102;
442;0.0208;822;0.1959;
443;0.0193;823;0.1817;
444;0.0193;824;0.1814;
445;0.0177;825;0.1633;
446;0.0169;826;0.1537;
447;0.0169;827;0.1342;
448;0.0154;828;0.1312;
449;0.0154;829;0.1224;
450;0.0154;830;0.1085;
451;0.0146;831;0.1078;
452;0.0146;832;0.0940;
453;0.0146;833;0.0896;
454;0.0131;834;0.0827;
455;0.0139;835;0.0749;
456;0.0131;836;0.0729;
457;0.0123;837;0.0650;
458;0.0123;838;0.0656;
459;0.0131;839;0.0593;
460;0.0116;840;0.0505;
461;0.0116;841;0.0480;
462;0.0108;842;0.0397;
463;0.0108;843;0.0421;
464;0.0100;844;0.0397;
465;0.0100;845;0.0352;
466;0.0100;846;0.0309;
467;0.0100;847;0.0260;
468;0.0100;848;0.0263;
469;0.0092;849;0.0242;
470;0.0092;850;0.0209;
471;0.0092;851;0.0209;
472;0.0085;852;0.0199;
473;0.0085;853;0.0162;
474;0.0085;854;0.0142;
475;0.0085;855;0.0146;
476;0.0085;856;0.0134;
477;0.0085;857;0.0107;
478;0.0077;858;0.0125;
479;0.0077;859;0.0130;
480;0.0085;860;0.0110;
481;0.0085;861;0.0091;
482;0.0085;862;0.0075;
483;0.0085;863;0.0085;
484;0.0085;864;0.0050;
485;0.0085;865;0.0051;
486;0.0085;866;0.0050;
487;0.0092;867;0.0045;
488;0.0085;868;0.0056;
489;0.0092;869;0.0048;
490;0.0100;870;0.0024;
491;0.0100;871;0.0031;
492;0.0100;872;0.0032;
493;0.0108;873;0.0036;
494;0.0108;874;0.0033;
495;0.0108;875;0.0025;
496;0.0108;876;0.0017;
497;0.0123;877;0.0039;
498;0.0123;878;0.0032;
499;0.0123;879;-0.0003;
500;0.0131;880;0.0031;
501;0.0131;881;0.0017;
502;0.0139;882;0.0024;
503;0.0139;883;0.0005;
504;0.0139;884;0.0030;
505;0.0146;885;0.0030;
506;0.0154;886;0.0029;
507;0.0154;887;0.0030;
508;0.0169;888;0.0017;
509;0.0169;889;0.0019;
510;0.0177;890;0.0022;
511;0.0185;891;0.0038;
512;0.0193;892;0.0016;
513;0.0200;893;0.0002;
514;0.0208;894;0.0003;
515;0.0208;895;0.0017;
516;0.0216;896;0.0006;
517;0.0223;897;0.0002;
518;0.0239;898;0.0009;
519;0.0247;899;-0.0007;
520;0.0254;900;0.0000;
521;0.0262;;;
522;0.0270;;;
523;0.0285;;;
524;0.0293;;;
525;0.0300;;;
526;0.0316;;;
527;0.0331;;;
528;0.0339;;;
529;0.0354;;;
530;0.0370;;;
531;0.0378;;;
532;0.0401;;;
533;0.0416;;;
534;0.0431;;;
535;0.0447;;;
536;0.0462;;;
537;0.0478;;;
538;0.0493;;;
539;0.0516;;;
540;0.0532;;;
541;0.0555;;;
542;0.0578;;;
543;0.0593;;;
544;0.0616;;;
545;0.0639;;;
546;0.0663;;;
547;0.0678;;;
548;0.0701;;;
549;0.0724;;;
550;0.0755;;;
551;0.0778;;;
552;0.0801;;;
553;0.0832;;;
554;0.0855;;;
555;0.0878;;;
556;0.0917;;;
557;0.0940;;;
558;0.0971;;;
559;0.0994;;;
560;0.1032;;;
561;0.1063;;;
562;0.1094;;;
563;0.1125;;;
564;0.1171;;;
565;0.1194;;;
566;0.1225;;;
567;0.1256;;;
568;0.1287;;;
569;0.1333;;;
570;0.1364;;;
571;0.1402;;;
572;0.1441;;;
573;0.1487;;;
574;0.1518;;;
575;0.1556;;;
576;0.1602;;;
577;0.1641;;;
578;0.1687;;;
579;0.1733;;;
580;0.1780;;;
581;0.1826;;;
582;0.1888;;;
583;0.1941;;;
584;0.1995;;;
585;0.2049;;;
586;0.2111;;;
587;0.2165;;;
588;0.2227;;;
589;0.2288;;;
590;0.2342;;;
591;0.2396;;;
592;0.2450;;;
593;0.2504;;;
594;0.2550;;;
595;0.2604;;;
596;0.2650;;;
597;0.2696;;;
598;0.2735;;;
599;0.2773;;;
600;0.2820;;;
601;0.2858;;;
602;0.2889;;;
603;0.2935;;;
604;0.2982;;;
605;0.3020;;;
606;0.3059;;;
607;0.3097;;;
608;0.3136;;;
609;0.3182;;;
610;0.3220;;;
611;0.3267;;;
612;0.3305;;;
613;0.3344;;;
614;0.3390;;;
615;0.3436;;;
616;0.3475;;;
617;0.3513;;;
618;0.3559;;;
619;0.3598;;;
620;0.3636;;;
621;0.3667;;;
622;0.3706;;;
623;0.3744;;;
624;0.3767;;;
625;0.3806;;;
626;0.3837;;;
627;0.3860;;;
628;0.3891;;;
629;0.3929;;;
630;0.3968;;;
631;0.3998;;;
632;0.4029;;;
633;0.4068;;;
634;0.4114;;;
635;0.4168;;;
636;0.4230;;;
637;0.4291;;;
638;0.4368;;;
639;0.4445;;;
640;0.4538;;;
641;0.4622;;;
642;0.4723;;;
643;0.4831;;;
644;0.4923;;;
645;0.5039;;;
646;0.5139;;;
647;0.5216;;;
648;0.5293;;;
649;0.5354;;;
650;0.5393;;;
651;0.5408;;;
652;0.5393;;;
653;0.5347;;;
654;0.5262;;;
655;0.5162;;;
656;0.5039;;;
657;0.4884;;;
658;0.4723;;;
659;0.4553;;;
660;0.4376;;;
661;0.4199;;;
662;0.4029;;;
663;0.3860;;;
664;0.3690;;;
665;0.3544;;;
666;0.3428;;;
667;0.3313;;;
668;0.3220;;;
669;0.3143;;;
670;0.3082;;;
671;0.3028;;;
672;0.2997;;;
673;0.2974;;;
674;0.2974;;;
675;0.2966;;;
676;0.2958;;;
677;0.2982;;;
678;0.2997;;;
679;0.3020;;;
680;0.3043;;;
681;0.3074;;;
682;0.3105;;;
683;0.3128;;;
684;0.3159;;;
685;0.3174;;;
686;0.3197;;;
687;0.3228;;;
688;0.3251;;;
689;0.3274;;;
690;0.3290;;;
691;0.3320;;;
692;0.3328;;;
693;0.3344;;;
694;0.3359;;;
695;0.3374;;;
696;0.3390;;;
697;0.3398;;;
698;0.3413;;;
699;0.3421;;;
700;0.3428;;;
701;0.3436;;;
702;0.3444;;;
703;0.3459;;;
704;0.3475;;;
705;0.3490;;;
706;0.3505;;;
707;0.3529;;;
708;0.3552;;;
709;0.3575;;;
710;0.3613;;;
711;0.3652;;;
712;0.3690;;;
713;0.3744;;;
714;0.3806;;;
715;0.3867;;;
716;0.3937;;;
717;0.4014;;;
718;0.4091;;;
719;0.4183;;;
720;0.4284;;;
721;0.4391;;;
722;0.4507;;;
723;0.4638;;;
724;0.4777;;;
725;0.4915;;;
726;0.5069;;;
727;0.5231;;;
728;0.5393;;;
729;0.5578;;;
730;0.5763;;;
731;0.5955;;;
732;0.6148;;;
733;0.6348;;;
734;0.6556;;;
735;0.6772;;;
736;0.6988;;;
737;0.7211;;;
738;0.7427;;;
739;0.7643;;;
740;0.7858;;;
741;0.8082;;;
742;0.8290;;;
743;0.8490;;;
744;0.8690;;;
745;0.8875;;;
746;0.9052;;;
747;0.9214;;;
748;0.9376;;;
749;0.9507;;;
750;0.9630;;;
751;0.9738;;;
752;0.9830;;;
753;0.9900;;;
754;0.9954;;;
755;0.9985;;;
756;1.0000;;;
757;0.9977;;;
758;0.9946;;;
759;0.9884;;;
760;0.9800;;;
761;0.9692;;;
762;0.9553;;;
763;0.9399;;;
764;0.9214;;;
765;0.9014;;;
766;0.8790;;;
767;0.8552;;;
768;0.8305;;;
769;0.8043;;;
770;0.7789;;;
771;0.7512;;;
772;0.7250;;;
773;0.6980;;;
774;0.6718;;;
775;0.6441;;;
776;0.6171;;;
777;0.5901;;;
778;0.5624;;;
779;0.5339;;;
780;0.5069;;;
781;0.4800;;;
782;0.4538;;;
783;0.4284;;;
784;0.4037;;;
785;0.3806;;;
786;0.3567;;;
787;0.3359;;;
788;0.3151;;;
789;0.2951;;;
790;0.2743;;;
791;0.2550;;;
792;0.2357;;;
793;0.2180;;;
794;0.2003;;;
795;0.1849;;;
796;0.1680;;;
797;0.1549;;;
798;0.1425;;;
799;0.1317;;;
800;0.1210;;;
801;0.1117;;;
802;0.1032;;;
803;0.0948;;;
804;0.0871;;;
805;0.0809;;;
806;0.0740;;;
807;0.0686;;;
808;0.0632;;;
809;0.0586;;;
810;0.0539;;;
811;0.0501;;;
812;0.0462;;;
813;0.0424;;;
814;0.0385;;;
815;0.0354;;;
816;0.0331;;;
817;0.0308;;;
818;0.0285;;;
819;0.0262;;;
820;0.0247;;;
821;0.0231;;;
822;0.0208;;;
823;0.0193;;;
824;0.0185;;;
825;0.0177;;;
826;0.0162;;;
827;0.0146;;;
828;0.0139;;;
829;0.0131;;;
830;0.0123;;;
831;0.0123;;;
832;0.0116;;;
833;0.0108;;;
834;0.0108;;;
835;0.0100;;;
836;0.0100;;;
837;0.0092;;;
838;0.0092;;;
839;0.0085;;;
840;0.0085;;;
841;0.0077;;;
842;0.0077;;;
843;0.0069;;;
844;0.0069;;;
845;0.0069;;;
846;0.0069;;;
847;0.0062;;;
848;0.0062;;;
849;0.0054;;;
850;0.0054;;;
851;0.0054;;;
852;0.0046;;;
853;0.0046;;;
854;0.0046;;;
855;0.0039;;;
856;0.0046;;;
857;0.0039;;;
858;0.0039;;;
859;0.0031;;;
860;0.0031;;;
861;0.0031;;;
862;0.0031;;;
863;0.0023;;;
864;0.0031;;;
865;0.0031;;;
866;0.0023;;;
867;0.0023;;;
868;0.0031;;;
869;0.0023;;;
870;0.0023;;;
871;0.0023;;;
872;0.0015;;;
873;0.0015;;;
874;0.0015;;;
875;0.0008;;;
876;0.0015;;;
877;0.0008;;;
878;0.0008;;;
879;0.0015;;;
880;0.0000;;;
881;0.0008;;;
882;0.0008;;;
883;0.0008;;;
884;0.0015;;;
885;0.0015;;;
886;0.0008;;;
887;0.0008;;;
888;0.0008;;;
889;0.0000;;;
890;0.0008;;;
891;0.0008;;;
892;0.0008;;;
893;0.0000;;;
894;0.0000;;;
895;0.0008;;;
896;0.0008;;;
897;0.0008;;;
898;0.0008;;;
899;0.0000;;;
