Absorption wavelength (nm);normalized Absorption;emission wavelength (nm);Normalized emission;
250;0.2978;465;0.0034;
251;0.2974;466;0.0040;
252;0.3022;467;0.0043;
253;0.3060;468;0.0051;
254;0.3076;469;0.0060;
255;0.3120;470;0.0072;
256;0.3177;471;0.0086;
257;0.3262;472;0.0101;
258;0.3366;473;0.0122;
259;0.3444;474;0.0151;
260;0.3482;475;0.0178;
261;0.3552;476;0.0220;
262;0.3633;477;0.0266;
263;0.3767;478;0.0318;
264;0.3931;479;0.0384;
265;0.4076;480;0.0461;
266;0.4193;481;0.0550;
267;0.4316;482;0.0651;
268;0.4447;483;0.0782;
269;0.4587;484;0.0920;
270;0.4728;485;0.1090;
271;0.4863;486;0.1266;
272;0.5017;487;0.1480;
273;0.5170;488;0.1716;
274;0.5315;489;0.1981;
275;0.5434;490;0.2267;
276;0.5533;491;0.2587;
277;0.5572;492;0.2945;
278;0.5590;493;0.3315;
279;0.5568;494;0.3714;
280;0.5504;495;0.4155;
281;0.5371;496;0.4598;
282;0.5208;497;0.5088;
283;0.5036;498;0.5594;
284;0.4880;499;0.6104;
285;0.4711;500;0.6649;
286;0.4500;501;0.7182;
287;0.4156;502;0.7666;
288;0.3696;503;0.8161;
289;0.3201;504;0.8622;
290;0.2757;505;0.9027;
291;0.2402;506;0.9355;
292;0.2143;507;0.9664;
293;0.1904;508;0.9877;
294;0.1698;509;0.9994;
295;0.1517;510;0.9999;
296;0.1377;511;1.0000;
297;0.1246;512;0.9889;
298;0.1144;513;0.9696;
299;0.1048;514;0.9406;
300;0.0962;515;0.9060;
301;0.0872;516;0.8711;
302;0.0801;517;0.8345;
303;0.0739;518;0.7934;
304;0.0675;519;0.7508;
305;0.0612;520;0.7149;
306;0.0579;521;0.6802;
307;0.0541;522;0.6504;
308;0.0528;523;0.6208;
309;0.0490;524;0.5966;
310;0.0487;525;0.5698;
311;0.0474;526;0.5470;
312;0.0459;527;0.5275;
313;0.0446;528;0.5084;
314;0.0439;529;0.4900;
315;0.0446;530;0.4733;
316;0.0442;531;0.4636;
317;0.0420;532;0.4504;
318;0.0412;533;0.4393;
319;0.0399;534;0.4296;
320;0.0390;535;0.4221;
321;0.0378;536;0.4105;
322;0.0353;537;0.4014;
323;0.0346;538;0.3942;
324;0.0348;539;0.3867;
325;0.0346;540;0.3810;
326;0.0317;541;0.3693;
327;0.0324;542;0.3621;
328;0.0321;543;0.3583;
329;0.0296;544;0.3476;
330;0.0308;545;0.3393;
331;0.0305;546;0.3295;
332;0.0299;547;0.3222;
333;0.0317;548;0.3120;
334;0.0312;549;0.3015;
335;0.0303;550;0.2908;
336;0.0322;551;0.2796;
337;0.0324;552;0.2674;
338;0.0326;553;0.2564;
339;0.0334;554;0.2450;
340;0.0348;555;0.2344;
341;0.0346;556;0.2243;
342;0.0357;557;0.2156;
343;0.0364;558;0.2068;
344;0.0374;559;0.1957;
345;0.0398;560;0.1864;
346;0.0412;561;0.1806;
347;0.0429;562;0.1706;
348;0.0438;563;0.1617;
349;0.0466;564;0.1548;
350;0.0490;565;0.1485;
351;0.0481;566;0.1406;
352;0.0512;567;0.1347;
353;0.0570;568;0.1283;
354;0.0539;569;0.1224;
355;0.0557;570;0.1173;
356;0.0590;571;0.1143;
357;0.0616;572;0.1080;
358;0.0646;573;0.1041;
359;0.0662;574;0.0969;
360;0.0685;575;0.0959;
361;0.0723;576;0.0920;
362;0.0729;577;0.0882;
363;0.0756;578;0.0843;
364;0.0798;579;0.0813;
365;0.0814;580;0.0786;
366;0.0841;581;0.0759;
367;0.0875;582;0.0737;
368;0.0909;583;0.0712;
369;0.0920;584;0.0687;
370;0.0955;585;0.0653;
371;0.0984;586;0.0645;
372;0.1002;587;0.0633;
373;0.1011;588;0.0594;
374;0.1078;589;0.0591;
375;0.1103;590;0.0558;
376;0.1123;591;0.0544;
377;0.1160;592;0.0530;
378;0.1174;593;0.0501;
379;0.1217;594;0.0492;
380;0.1250;595;0.0472;
381;0.1269;596;0.0461;
382;0.1296;597;0.0441;
383;0.1324;598;0.0417;
384;0.1349;599;0.0407;
385;0.1363;600;0.0388;
386;0.1393;601;0.0370;
387;0.1429;602;0.0361;
388;0.1442;603;0.0356;
389;0.1465;604;0.0336;
390;0.1480;605;0.0324;
391;0.1513;606;0.0325;
392;0.1541;607;0.0296;
393;0.1561;608;0.0286;
394;0.1582;609;0.0279;
395;0.1604;610;0.0271;
396;0.1622;611;0.0256;
397;0.1646;612;0.0252;
398;0.1651;613;0.0242;
399;0.1671;614;0.0222;
400;0.1683;615;0.0220;
401;0.1682;616;0.0223;
402;0.1700;617;0.0208;
403;0.1701;618;0.0199;
404;0.1710;619;0.0190;
405;0.1732;620;0.0179;
406;0.1732;621;0.0178;
407;0.1742;622;0.0170;
408;0.1763;623;0.0172;
409;0.1768;624;0.0155;
410;0.1776;625;0.0153;
411;0.1797;626;0.0152;
412;0.1818;627;0.0146;
413;0.1840;628;0.0148;
414;0.1858;629;0.0142;
415;0.1879;630;0.0134;
416;0.1901;631;0.0136;
417;0.1932;632;0.0125;
418;0.1967;633;0.0125;
419;0.1992;634;0.0120;
420;0.2028;635;0.0118;
421;0.2052;636;0.0119;
422;0.2079;637;0.0113;
423;0.2112;638;0.0111;
424;0.2147;639;0.0109;
425;0.2180;640;0.0108;
426;0.2218;641;0.0104;
427;0.2254;642;0.0102;
428;0.2299;643;0.0102;
429;0.2354;644;0.0096;
430;0.2408;645;0.0099;
431;0.2456;646;0.0096;
432;0.2518;647;0.0087;
433;0.2583;648;0.0097;
434;0.2661;649;0.0088;
435;0.2741;650;0.0090;
436;0.2832;651;0.0084;
437;0.2918;652;0.0080;
438;0.3018;653;0.0078;
439;0.3141;654;0.0079;
440;0.3248;655;0.0080;
441;0.3370;656;0.0076;
442;0.3496;657;0.0076;
443;0.3629;658;0.0079;
444;0.3766;659;0.0080;
445;0.3915;660;0.0071;
446;0.4072;661;0.0078;
447;0.4225;662;0.0075;
448;0.4392;663;0.0073;
449;0.4558;664;0.0071;
450;0.4734;665;0.0073;
451;0.4898;666;0.0070;
452;0.5080;667;0.0070;
453;0.5254;668;0.0069;
454;0.5431;669;0.0070;
455;0.5610;670;0.0064;
456;0.5785;671;0.0068;
457;0.5950;672;0.0065;
458;0.6119;673;0.0064;
459;0.6284;674;0.0065;
460;0.6438;675;0.0065;
461;0.6601;676;0.0067;
462;0.6744;677;0.0067;
463;0.6887;678;0.0065;
464;0.7018;679;0.0065;
465;0.7151;680;0.0064;
466;0.7277;681;0.0065;
467;0.7397;682;0.0064;
468;0.7524;683;0.0071;
469;0.7647;684;0.0068;
470;0.7771;685;0.0066;
471;0.7889;686;0.0068;
472;0.8017;687;0.0061;
473;0.8143;688;0.0069;
474;0.8286;689;0.0061;
475;0.8418;690;0.0065;
476;0.8561;691;0.0060;
477;0.8705;692;0.0068;
478;0.8846;693;0.0067;
479;0.9003;694;0.0063;
480;0.9151;695;0.0063;
481;0.9290;696;0.0064;
482;0.9436;697;0.0067;
483;0.9568;698;0.0068;
484;0.9691;699;0.0064;
485;0.9793;700;0.0064;
486;0.9885;701;0.0064;
487;0.9939;702;0.0068;
488;0.9982;703;0.0063;
489;1.0000;704;0.0069;
490;0.9968;705;0.0061;
491;0.9908;706;0.0074;
492;0.9797;707;0.0071;
493;0.9640;708;0.0067;
494;0.9442;709;0.0065;
495;0.9194;710;0.0064;
496;0.8904;711;0.0069;
497;0.8561;712;0.0069;
498;0.8188;713;0.0070;
499;0.7775;714;0.0070;
500;0.7346;715;0.0070;
501;0.6874;716;0.0073;
502;0.6399;717;0.0078;
503;0.5906;718;0.0078;
504;0.5428;719;0.0078;
505;0.4930;720;0.0072;
506;0.4459;721;0.0077;
507;0.3996;722;0.0073;
508;0.3548;723;0.0082;
509;0.3136;724;0.0073;
510;0.2747;725;0.0073;
511;0.2376;726;0.0076;
512;0.2042;727;0.0074;
513;0.1746;728;0.0080;
514;0.1469;729;0.0082;
515;0.1228;730;0.0091;
516;0.1015;731;0.0086;
517;0.0838;732;0.0078;
518;0.0686;733;0.0090;
519;0.0553;734;0.0088;
520;0.0454;735;0.0083;
521;0.0362;736;0.0091;
522;0.0307;737;0.0090;
523;0.0257;738;0.0090;
524;0.0212;739;0.0097;
525;0.0178;740;0.0088;
526;0.0157;741;0.0096;
527;0.0138;742;0.0086;
528;0.0122;743;0.0082;
529;0.0109;744;0.0094;
530;0.0093;745;0.0099;
531;0.0083;746;0.0094;
532;0.0073;747;0.0102;
533;0.0064;748;0.0102;
534;0.0059;749;0.0095;
535;0.0051;750;0.0107;
536;0.0054;;;
537;0.0052;;;
538;0.0048;;;
539;0.0047;;;
540;0.0044;;;
541;0.0050;;;
542;0.0056;;;
543;0.0053;;;
544;0.0054;;;
545;0.0053;;;
546;0.0046;;;
547;0.0058;;;
548;0.0057;;;
549;0.0061;;;
550;0.0059;;;
551;0.0050;;;
552;0.0049;;;
553;0.0043;;;
554;0.0044;;;
555;0.0042;;;
556;0.0044;;;
557;0.0040;;;
558;0.0046;;;
559;0.0036;;;
560;0.0054;;;
561;0.0043;;;
562;0.0036;;;
563;0.0038;;;
564;0.0036;;;
565;0.0044;;;
566;0.0050;;;
567;0.0041;;;
568;0.0037;;;
569;0.0034;;;
570;0.0042;;;
571;0.0041;;;
572;0.0046;;;
573;0.0040;;;
574;0.0041;;;
575;0.0045;;;
576;0.0047;;;
577;0.0053;;;
578;0.0043;;;
579;0.0046;;;
580;0.0038;;;
581;0.0042;;;
582;0.0041;;;
583;0.0038;;;
584;0.0045;;;
585;0.0044;;;
586;0.0041;;;
587;0.0040;;;
588;0.0048;;;
589;0.0042;;;
590;0.0043;;;
591;0.0042;;;
592;0.0038;;;
593;0.0040;;;
594;0.0047;;;
595;0.0044;;;
596;0.0032;;;
597;0.0034;;;
598;0.0034;;;
599;0.0037;;;
600;0.0036;;;
601;0.0027;;;
602;0.0031;;;
603;0.0030;;;
604;0.0033;;;
605;0.0031;;;
606;0.0040;;;
607;0.0039;;;
608;0.0043;;;
609;0.0038;;;
610;0.0047;;;
611;0.0034;;;
612;0.0042;;;
613;0.0038;;;
614;0.0045;;;
615;0.0041;;;
616;0.0038;;;
617;0.0038;;;
618;0.0041;;;
619;0.0050;;;
620;0.0041;;;
621;0.0044;;;
622;0.0027;;;
623;0.0041;;;
624;0.0028;;;
625;0.0032;;;
626;0.0026;;;
627;0.0035;;;
628;0.0037;;;
629;0.0038;;;
630;0.0041;;;
631;0.0037;;;
632;0.0045;;;
633;0.0032;;;
634;0.0033;;;
635;0.0030;;;
636;0.0034;;;
637;0.0027;;;
638;0.0022;;;
639;0.0022;;;
640;0.0031;;;
641;0.0022;;;
642;0.0028;;;
643;0.0019;;;
644;0.0023;;;
645;0.0023;;;
646;0.0020;;;
647;0.0030;;;
648;0.0030;;;
649;0.0034;;;
650;0.0043;;;
651;0.0033;;;
652;0.0038;;;
653;0.0031;;;
654;0.0038;;;
655;0.0032;;;
656;0.0035;;;
657;0.0033;;;
658;0.0033;;;
659;0.0040;;;
660;0.0029;;;
661;0.0028;;;
662;0.0032;;;
663;0.0033;;;
664;0.0033;;;
665;0.0032;;;
666;0.0027;;;
667;0.0019;;;
668;0.0025;;;
669;0.0026;;;
670;0.0034;;;
671;0.0028;;;
672;0.0036;;;
673;0.0041;;;
674;0.0036;;;
675;0.0030;;;
676;0.0021;;;
677;0.0010;;;
678;0.0004;;;
679;0.0022;;;
680;0.0009;;;
681;0.0015;;;
682;0.0004;;;
683;0.0007;;;
684;0.0010;;;
685;0.0013;;;
686;0.0016;;;
687;0.0014;;;
688;0.0018;;;
689;0.0005;;;
690;0.0017;;;
691;0.0004;;;
692;0.0012;;;
693;0.0012;;;
694;0.0002;;;
695;0.0011;;;
696;0.0021;;;
697;0.0022;;;
698;0.0023;;;
699;0.0022;;;
