wl,abs,wl ,em,Data copyright Molecular Probes
250,95.3999,590,0.9025053
251,87.44991,591,0.8381451
252,81.48742,592,0.8698376
253,76.3103,593,0.9751543
254,70.44398,594,1.102046
255,66.69338,595,1.2471
256,63.61596,596,1.424944
257,60.12181,597,1.582432
258,57.84581,598,1.808058
259,55.93845,599,1.907402
260,53.8067,600,2.146315
261,52.5565,601,2.325987
262,51.64289,602,2.538205
263,50.93765,603,2.792964
264,50.82545,604,3.226298
265,51.04985,605,3.502998
266,51.85126,606,3.792984
267,52.79692,607,4.227903
268,53.88684,608,4.619915
269,55.53775,609,5.060076
270,56.82,610,5.49792
271,58.05417,611,5.971967
272,59.73714,612,6.520125
273,61.06748,613,6.985274
274,62.46193,614,7.596087
275,64.70588,615,8.080981
276,66.75749,616,8.767368
277,69.08158,617,9.478378
278,72.60779,618,10.23619
279,75.41273,619,11.08787
280,78.05738,620,12.06193
281,81.08672,621,13.17665
282,82.75365,622,14.39669
283,83.66726,623,15.33198
284,83.97179,624,16.46743
285,83.65122,625,18.42262
286,83.18641,626,19.60304
287,82.57734,627,21.30919
288,82.38499,628,22.90077
289,82.54528,629,24.42591
290,83.21847,630,26.30369
291,83.95576,631,28.37662
292,84.62894,632,29.96625
293,84.98157,633,31.83282
294,84.51675,634,33.89722
295,83.13832,635,35.7817
296,79.62814,636,37.87438
297,75.73329,637,39.67025
298,71.16525,638,42.20212
299,64.40134,639,44.7374
300,59.22424,640,46.98586
301,54.41577,641,49.51175
302,48.5815,642,51.61285
303,44.51034,643,54.03184
304,40.96811,644,55.91035
305,36.88091,645,58.12273
306,34.22023,646,60.6691
307,31.99231,647,63.06945
308,29.45985,648,65.63593
309,27.79292,649,67.88232
310,26.41449,650,69.99584
311,24.8277,651,72.2237
312,23.84998,652,73.91451
313,23.01651,653,76.02547
314,22.08687,654,78.61401
315,21.4778,655,81.08554
316,20.9649,656,82.41114
317,20.37185,657,84.42398
318,19.98718,658,85.62817
319,19.63456,659,87.15222
320,19.26591,660,89.19566
321,19.05754,661,90.26649
322,18.88123,662,91.52993
323,18.73698,663,92.95463
324,18.60875,664,93.68832
325,18.54464,665,95.46529
326,18.52861,666,96.61195
327,18.59272,667,97.37939
328,18.65684,668,96.93338
329,18.83315,669,98.36588
330,19.00946,670,98.31895
331,19.16974,671,98.8826
332,19.50633,672,99.35628
333,19.79484,673,99.1031
334,20.13143,674,100
335,20.70845,675,98.59237
336,21.17327,676,98.56409
337,21.7022,677,98.28836
338,22.50361,678,97.80103
339,23.12871,679,97.20753
340,23.73778,680,97.23508
341,24.57125,681,96.54039
342,25.26046,682,95.68433
343,25.94967,683,94.152
344,26.86328,684,94.52585
345,27.53646,685,92.44597
346,28.17759,686,90.5243
347,29.05914,687,90.02819
348,29.7163,688,88.28108
349,30.35743,689,87.73902
350,31.12678,690,86.20449
351,31.76791,691,84.83245
352,32.36095,692,84.53808
353,33.13031,693,82.1793
354,33.6913,694,82.03753
355,34.22023,695,80.87186
356,34.86135,696,79.36634
357,35.27809,697,78.87621
358,35.63071,698,76.97563
359,36.03142,699,75.53484
360,36.1917,700,74.28311
361,36.20773,701,72.8539
362,35.99936,702,70.89359
363,35.69482,703,69.01411
364,35.26206,704,68.66939
365,34.39654,705,66.13265
366,33.56307,706,65.49343
367,32.64946,707,64.50645
368,31.28707,708,61.90072
369,30.10098,709,60.8712
370,28.85078,710,60.29269
371,27.13576,711,58.6242
372,25.83747,712,56.42962
373,24.61933,713,55.36658
374,23.03254,714,54.57415
375,21.89454,715,53.20601
376,20.83667,716,51.50058
377,19.55442,717,50.35611
378,18.65684,718,49.86354
379,17.90351,719,47.97466
380,16.95785,720,47.61215
381,16.38083,721,46.61847
382,15.88396,722,45.45742
383,15.27488,723,43.91571
384,14.92226,724,42.58072
385,14.64978,725,41.95455
386,14.39333,726,41.24647
387,14.23305,727,39.59224
388,14.13688,728,39.19121
389,14.0888,729,38.53639
390,14.13688,730,37.76529
391,14.26511,731,36.65434
392,14.47347,732,36.40251
393,14.64978,733,36.10655
394,14.85815,734,34.4767
395,15.21077,735,34.11065
396,15.49928,736,34.0374
397,15.81984,737,33.06468
398,16.33274,738,32.58575
399,16.71742,739,32.14645
400,17.11813,740,32.14169
401,17.67912,741,31.59061
402,18.11188,742,31.20506
403,18.57669,743,30.98784
404,19.18577,744,30.73101
405,19.68264,745,29.78389
406,20.17952,746,29.46563
407,20.8527,747,29.12371
408,21.3656,748,28.73182
409,21.86248,749,28.09151
410,22.53566,750,27.53629
411,23.01651,751,27.10332
412,23.48133,752,27.23045
413,24.0904,753,26.41656
414,24.52316,754,25.38107
415,24.92386,755,25.74627
416,25.38868,756,25.05659
417,25.70925,757,24.67677
418,25.98173,758,24.16579
419,26.30229,759,22.84201
420,26.46257,760,23.34775
421,26.60683,761,22.79899
422,26.703,762,21.83651
423,26.703,763,22.21255
424,26.65491,764,21.45876
425,26.49463,765,20.787
426,26.30229,766,21.13696
427,26.0779,767,20.68765
428,25.66116,768,19.79112
429,25.29251,769,19.67703
430,24.87578,770,19.04915
431,24.26671,771,18.56194
432,23.73778,772,17.85568
433,23.19282,773,18.45553
434,22.42347,774,18.16115
435,21.78234,775,17.75207
436,21.17327,776,17.45234
437,20.32377,777,16.98536
438,19.65059,778,16.44659
439,18.99343,779,16.10784
440,18.15996,780,15.56944
441,17.50281,781,15.57078
442,16.8777,782,15.3332
443,16.06027,783,14.80564
444,15.51531,784,14.17435
445,14.98638,785,14.43326
446,14.29716,786,13.89546
447,13.81632,787,14.10939
448,13.3515,788,13.43604
449,12.75845,789,12.68091
450,12.37378,790,12.50233
451,11.9891,791,12.21417
452,11.50826,792,11.42576
453,11.17166,793,11.328
454,10.8511,794,10.97512
455,10.43436,795,11.20489
456,10.14586,796,9.864295
457,9.873377,797,10.11528
458,9.4887,798,10.75461
459,9.232248,799,10.7601
460,8.975798,800,10.54264
461,8.639205,801,10.0063
462,8.398782,802,8.882681
463,8.174387,803,9.03066
464,7.869851,804,9.055039
465,7.645456,805,8.836605
466,7.437089,806,8.794429
467,7.148582,807,8.193977
468,6.972271,808,7.770517
469,6.795961,809,8.205314
470,6.555538,810,7.912402
471,6.411283,811,7.825004
472,6.26703,812,7.04354
473,6.09072,813,7.127037
474,5.978522,814,7.325115
475,5.898381,815,7.285378
476,5.786184,816,7.138617
477,5.722071,817,7.203709
478,5.690015,818,6.795485
479,5.64193,819,6.756722
480,5.64193,820,6.730028
481,5.657958,821,6.280481
482,5.690015,822,6.495868
483,5.754128,823,6.187963
484,5.834269,824,6.143594
485,5.930438,825,6.095202
486,6.010579,,
487,6.09072,,
488,6.251002,,
489,6.379227
490,6.507453
491,6.71582
492,6.89213
493,7.068441
494,7.324892
495,7.533258
496,7.741625
497,8.046162
498,8.270556
499,8.51098
500,8.8636
501,9.120051
502,9.408559
503,9.841321
504,10.14586
505,10.45039
506,10.89918
507,11.23577
508,11.5884
509,12.08527
510,12.46995
511,12.85462
512,13.43164
513,13.84837
514,14.28114
515,14.90624
516,15.37105
517,15.8519
518,16.52508
519,17.02196
520,17.55089
521,18.28819
522,18.83315
523,19.39413
524,20.19555
525,20.78859
526,21.39766
527,22.27921
528,22.92034
529,23.59352
530,24.55522
531,25.26046
532,25.99776
533,27.03959
534,27.841
535,28.64241
536,29.78041
537,30.66197
538,31.54352
539,32.77769
540,33.70732
541,34.68505
542,36.01539
543,37.00914
544,38.00289
545,39.41337
546,40.47123
547,41.52909
548,43.01972
549,44.12566
550,45.23161
551,46.75429
552,47.89229
553,49.01426
554,50.569
555,51.707
556,52.86104
557,54.4318
558,55.56981
559,56.70781
560,58.26254
561,59.4326
562,60.57061
563,62.14137
564,63.27937
565,64.44943
566,66.05225
567,67.22231
568,68.4084
569,70.04327
570,71.24539
571,72.44751
572,74.11444
573,75.34861
574,76.56676
575,78.24972
576,79.48389
577,80.70203
578,82.35294
579,83.55506
580,84.74114
581,86.31191
582,87.43388
583,88.53983
584,90.01443
585,91.05625
586,92.06604
587,93.33227
588,94.21382
589,95.06332
590,96.12117
591,96.82642
592,97.48357
593,98.22087
594,98.70172
595,99.10242
596,99.53518
597,99.7756
598,99.91985
599,100
600,99.96795
601,99.85575
602,99.55121
603,99.24667
604,98.84597
605,98.17278
606,97.56371
607,96.8745
608,95.75253
609,94.85494
610,93.8612
611,92.32249
612,91.12037
613,89.82209
614,87.8987
615,86.42411
616,84.8854
617,82.65747
618,80.95849
619,79.19538
620,76.69498
621,74.80365
622,72.88027
623,70.20356
624,68.23209
625,66.22856
626,63.48774
627,61.46819
628,59.46466
629,56.75589
630,54.78442
631,52.82898
632,50.20035
633,48.30902
634,46.43372
635,43.93332
636,42.17022
637,40.42315
638,38.067
639,36.40006
640,34.74916
641,32.56932
642,31.03061
643,29.53999
644,27.52044
645,26.10995
646,24.73153
647,22.92034
648,21.67014
649,20.46802
650,18.8652
651,17.77528
652,16.73345
653,15.37105
654,14.45745
655,13.57589
656,12.40583
657,11.62045
658,10.86713
659,9.905434
660,9.280334
661,8.671262
662,7.901907
663,7.389005
664,6.908158
665,6.283058
666,5.866325
667,5.46562
668,4.984773
669,4.64818
670,4.343645
671,3.958968
672,3.702516
673,3.446065
674,3.141529
675,2.933162
676,2.756852
677,2.500401
678,2.32409
679,2.179837
680,1.97147
681,1.843244
682,1.731047
683,1.570765
684,1.458567
685,1.34637
686,1.2502
687,1.154031
688,1.07389
689,0.993749
690,0.9296361
691,0.8655233
692,0.8014104
693,0.7533258
694,0.7052412
695,0.6411284
696,0.5930437
697,0.5609874
698,0.5129027
699,0.4808463
700,0.4487899
701,0.4327617
702,0.4167334
703,0.4007052
704,0.3686488
705,0.3686488
706,0.3526206
707,0.3365924
708,0.3365924
709,0.3205642
710,0.2885078
711,0.2724796
712,0.2564513
713,0.2243949
714,0.2243949
715,0.1923385
716,0.1763103
717,0.1602821
718,0.1602821
719,0.1442539
720,0.1282257
