Exitation wavelength (nm);normalized Exitation;emission wavelength (nm);Normalized emission;
500;0.0017;503;0.0000;
501;0.0018;531;0.0000;
502;0.0020;540;0.0000;
503;0.0022;566;0.0000;
504;0.0023;575;0.0000;
505;0.0025;582;0.0000;
506;0.0025;583;0.0000;
507;0.0027;584;0.0000;
508;0.0030;585;0.0000;
509;0.0031;586;0.0000;
510;0.0032;587;0.0000;
511;0.0038;588;0.0001;
512;0.0040;589;0.0001;
513;0.0041;590;0.0001;
514;0.0043;591;0.0002;
515;0.0047;592;0.0002;
516;0.0052;593;0.0003;
517;0.0055;594;0.0004;
518;0.0059;595;0.0006;
519;0.0065;596;0.0008;
520;0.0068;597;0.0012;
521;0.0072;598;0.0017;
522;0.0078;599;0.0024;
523;0.0084;600;0.0031;
524;0.0087;601;0.0042;
525;0.0092;602;0.0056;
526;0.0101;603;0.0068;
527;0.0111;604;0.0090;
528;0.0116;605;0.0108;
529;0.0123;606;0.0131;
530;0.0135;607;0.0155;
531;0.0141;608;0.0192;
532;0.0153;609;0.0224;
533;0.0163;610;0.0263;
534;0.0172;611;0.0317;
535;0.0186;612;0.0362;
536;0.0201;613;0.0411;
537;0.0208;614;0.0487;
538;0.0227;615;0.0573;
539;0.0239;616;0.0661;
540;0.0253;617;0.0760;
541;0.0272;618;0.0866;
542;0.0281;619;0.0997;
543;0.0302;620;0.1147;
544;0.0321;621;0.1292;
545;0.0341;622;0.1500;
546;0.0359;623;0.1720;
547;0.0383;624;0.1948;
548;0.0403;625;0.2209;
549;0.0424;626;0.2494;
550;0.0464;627;0.2812;
551;0.0477;628;0.3111;
552;0.0501;629;0.3465;
553;0.0535;630;0.3845;
554;0.0559;631;0.4254;
555;0.0585;632;0.4672;
556;0.0620;633;0.5026;
557;0.0652;634;0.5456;
558;0.0684;635;0.5876;
559;0.0708;636;0.6317;
560;0.0734;637;0.6690;
561;0.0764;638;0.7051;
562;0.0802;639;0.7591;
563;0.0824;640;0.7992;
564;0.0850;641;0.8379;
565;0.0883;642;0.8748;
566;0.0911;643;0.9044;
567;0.0945;644;0.9381;
568;0.0965;645;0.9583;
569;0.0989;646;0.9705;
570;0.1037;647;0.9918;
571;0.1056;648;0.9880;
572;0.1074;649;0.9961;
573;0.1110;650;1.0000;
574;0.1128;651;0.9895;
575;0.1144;652;0.9812;
576;0.1171;653;0.9698;
577;0.1203;654;0.9424;
578;0.1227;655;0.9238;
579;0.1257;656;0.8884;
580;0.1292;657;0.8684;
581;0.1310;658;0.8330;
582;0.1332;659;0.7962;
583;0.1369;660;0.7741;
584;0.1396;661;0.7447;
585;0.1418;662;0.7112;
586;0.1475;663;0.6712;
587;0.1515;664;0.6375;
588;0.1558;665;0.6077;
589;0.1595;666;0.5789;
590;0.1667;667;0.5543;
591;0.1719;668;0.5233;
592;0.1764;669;0.4972;
593;0.1832;670;0.4718;
594;0.1911;671;0.4470;
595;0.1982;672;0.4238;
596;0.2074;673;0.4023;
597;0.2156;674;0.3849;
598;0.2247;675;0.3696;
599;0.2369;676;0.3548;
600;0.2493;677;0.3406;
601;0.2629;678;0.3259;
602;0.2750;679;0.3152;
603;0.2932;680;0.3066;
604;0.3102;681;0.2973;
605;0.3290;682;0.2872;
606;0.3512;683;0.2818;
607;0.3736;684;0.2770;
608;0.3982;685;0.2704;
609;0.4235;686;0.2690;
610;0.4500;687;0.2672;
611;0.4810;688;0.2611;
612;0.5115;689;0.2573;
613;0.5438;690;0.2566;
614;0.5806;691;0.2549;
615;0.6113;692;0.2551;
616;0.6482;693;0.2508;
617;0.6877;694;0.2493;
618;0.7291;695;0.2447;
619;0.7584;696;0.2426;
620;0.7946;697;0.2410;
621;0.8285;698;0.2371;
622;0.8615;699;0.2341;
623;0.8947;700;0.2281;
624;0.9129;701;0.2236;
625;0.9395;702;0.2188;
626;0.9683;703;0.2134;
627;0.9849;704;0.2070;
628;0.9938;705;0.2007;
629;1.0000;706;0.1936;
630;0.9882;707;0.1859;
631;0.9794;708;0.1797;
632;0.9726;709;0.1723;
633;0.9501;710;0.1656;
634;0.9267;711;0.1587;
635;0.8975;712;0.1503;
636;0.8635;713;0.1429;
637;0.8173;714;0.1371;
638;0.7783;715;0.1295;
639;0.7356;716;0.1224;
640;0.6962;717;0.1165;
641;0.6572;718;0.1111;
642;0.6106;719;0.1066;
643;0.5708;720;0.1016;
644;0.5305;721;0.0968;
645;0.4903;722;0.0913;
646;0.4498;723;0.0881;
647;0.4138;724;0.0835;
648;0.3742;725;0.0789;
649;0.3374;726;0.0756;
650;0.3003;727;0.0722;
651;0.2699;728;0.0692;
652;0.2411;729;0.0670;
653;0.2151;730;0.0640;
654;0.1917;731;0.0616;
655;0.1702;732;0.0587;
656;0.1515;733;0.0573;
657;0.1323;734;0.0558;
658;0.1167;735;0.0534;
659;0.1016;736;0.0515;
660;0.0894;737;0.0496;
661;0.0766;738;0.0481;
662;0.0669;739;0.0467;
663;0.0578;740;0.0448;
664;0.0505;741;0.0435;
665;0.0427;742;0.0419;
666;0.0362;743;0.0406;
667;0.0309;744;0.0393;
668;0.0263;745;0.0380;
669;0.0234;746;0.0367;
670;0.0198;747;0.0352;
671;0.0167;748;0.0338;
672;0.0142;749;0.0329;
673;0.0117;750;0.0312;
674;0.0102;751;0.0301;
675;0.0082;752;0.0287;
676;0.0064;753;0.0278;
677;0.0055;754;0.0263;
678;0.0043;755;0.0252;
679;0.0034;756;0.0243;
680;0.0026;757;0.0231;
681;0.0019;758;0.0220;
682;0.0014;759;0.0209;
683;0.0010;760;0.0194;
684;0.0007;761;0.0185;
685;0.0005;762;0.0176;
686;0.0003;763;0.0166;
687;0.0002;764;0.0158;
688;0.0002;765;0.0151;
689;0.0001;766;0.0140;
690;0.0000;767;0.0133;
691;0.0000;768;0.0128;
692;0.0000;769;0.0122;
693;0.0000;770;0.0114;
;;771;0.0111;
;;772;0.0106;
;;773;0.0099;
;;774;0.0096;
;;775;0.0090;
;;776;0.0085;
;;777;0.0082;
;;778;0.0079;
;;779;0.0074;
;;780;0.0070;
;;781;0.0067;
;;782;0.0064;
;;783;0.0061;
;;784;0.0057;
;;785;0.0054;
;;786;0.0052;
;;787;0.0048;
;;788;0.0045;
;;789;0.0043;
;;790;0.0042;
;;791;0.0040;
;;792;0.0036;
;;793;0.0034;
;;794;0.0031;
;;795;0.0030;
;;796;0.0028;
;;797;0.0026;
;;798;0.0025;
;;799;0.0023;
