Exitation wavelength (nm);normalized Exitation;emission wavelength (nm);Normalized emission;
300;0.2536;540;0.0142;
301;0.2514;541;0.0152;
302;0.2494;542;0.0177;
303;0.2458;543;0.0211;
304;0.2404;544;0.0247;
305;0.2353;545;0.0296;
306;0.2280;546;0.0364;
307;0.2205;547;0.0435;
308;0.2099;548;0.0519;
309;0.1984;549;0.0603;
310;0.1868;550;0.0717;
311;0.1741;551;0.0842;
312;0.1609;552;0.0985;
313;0.1491;553;0.1140;
314;0.1362;554;0.1321;
315;0.1248;555;0.1525;
316;0.1136;556;0.1750;
317;0.1037;557;0.2017;
318;0.0940;558;0.2305;
319;0.0855;559;0.2618;
320;0.0772;560;0.2947;
321;0.0699;561;0.3301;
322;0.0631;562;0.3694;
323;0.0584;563;0.4087;
324;0.0536;564;0.4487;
325;0.0508;565;0.4910;
326;0.0468;566;0.5325;
327;0.0451;567;0.5754;
328;0.0436;568;0.6198;
329;0.0416;569;0.6636;
330;0.0419;570;0.7050;
331;0.0411;571;0.7458;
332;0.0408;572;0.7852;
333;0.0398;573;0.8200;
334;0.0417;574;0.8532;
335;0.0428;575;0.8840;
336;0.0431;576;0.9102;
337;0.0445;577;0.9349;
338;0.0454;578;0.9521;
339;0.0480;579;0.9728;
340;0.0497;580;0.9839;
341;0.0519;581;0.9955;
342;0.0533;582;0.9985;
343;0.0561;583;1.0000;
344;0.0595;584;0.9944;
345;0.0615;585;0.9899;
346;0.0646;586;0.9793;
347;0.0661;587;0.9692;
348;0.0675;588;0.9581;
349;0.0676;589;0.9390;
350;0.0678;590;0.9218;
351;0.0666;591;0.9012;
352;0.0656;592;0.8785;
353;0.0650;593;0.8598;
354;0.0623;594;0.8331;
355;0.0609;595;0.8109;
356;0.0589;596;0.7872;
357;0.0577;597;0.7600;
358;0.0558;598;0.7368;
359;0.0555;599;0.7131;
360;0.0543;600;0.6873;
361;0.0540;601;0.6611;
362;0.0527;602;0.6394;
363;0.0535;603;0.6172;
364;0.0529;604;0.5946;
365;0.0512;605;0.5734;
366;0.0520;606;0.5487;
367;0.0518;607;0.5285;
368;0.0511;608;0.5088;
369;0.0518;609;0.4911;
370;0.0513;610;0.4739;
371;0.0516;611;0.4589;
372;0.0510;612;0.4429;
373;0.0518;613;0.4288;
374;0.0514;614;0.4152;
375;0.0527;615;0.4019;
376;0.0518;616;0.3903;
377;0.0520;617;0.3803;
378;0.0530;618;0.3696;
379;0.0518;619;0.3604;
380;0.0525;620;0.3500;
381;0.0523;621;0.3441;
382;0.0538;622;0.3369;
383;0.0530;623;0.3290;
384;0.0521;624;0.3228;
385;0.0542;625;0.3133;
386;0.0544;626;0.3090;
387;0.0547;627;0.3050;
388;0.0552;628;0.2975;
389;0.0551;629;0.2896;
390;0.0553;630;0.2856;
391;0.0568;631;0.2811;
392;0.0566;632;0.2765;
393;0.0572;633;0.2716;
394;0.0582;634;0.2656;
395;0.0588;635;0.2601;
396;0.0589;636;0.2554;
397;0.0597;637;0.2508;
398;0.0597;638;0.2465;
399;0.0606;639;0.2406;
400;0.0611;640;0.2364;
401;0.0612;641;0.2316;
402;0.0622;642;0.2269;
403;0.0620;643;0.2212;
404;0.0622;644;0.2159;
405;0.0624;645;0.2106;
406;0.0625;646;0.2055;
407;0.0627;647;0.1998;
408;0.0632;648;0.1946;
409;0.0640;649;0.1886;
410;0.0640;650;0.1834;
411;0.0637;651;0.1788;
412;0.0650;652;0.1719;
413;0.0645;653;0.1668;
414;0.0658;654;0.1621;
415;0.0664;655;0.1573;
416;0.0658;656;0.1532;
417;0.0666;657;0.1474;
418;0.0668;658;0.1425;
419;0.0679;659;0.1372;
420;0.0686;660;0.1331;
421;0.0694;661;0.1287;
422;0.0699;662;0.1249;
423;0.0704;663;0.1197;
424;0.0722;664;0.1141;
425;0.0724;665;0.1120;
426;0.0722;666;0.1074;
427;0.0733;667;0.1039;
428;0.0746;668;0.1005;
429;0.0759;669;0.0968;
430;0.0752;670;0.0931;
431;0.0773;671;0.0903;
432;0.0780;672;0.0869;
433;0.0794;673;0.0839;
434;0.0804;674;0.0806;
435;0.0809;675;0.0772;
436;0.0822;676;0.0738;
437;0.0828;677;0.0712;
438;0.0843;678;0.0687;
439;0.0851;679;0.0658;
440;0.0856;680;0.0639;
441;0.0871;681;0.0612;
442;0.0879;682;0.0607;
443;0.0891;683;0.0580;
444;0.0902;684;0.0555;
445;0.0913;685;0.0536;
446;0.0924;686;0.0520;
447;0.0937;687;0.0496;
448;0.0950;688;0.0484;
449;0.0950;689;0.0481;
450;0.0972;690;0.0472;
451;0.0986;691;0.0467;
452;0.1003;692;0.0452;
453;0.1016;693;0.0439;
454;0.1035;694;0.0433;
455;0.1046;695;0.0432;
456;0.1067;696;0.0419;
457;0.1078;697;0.0414;
458;0.1096;698;0.0393;
459;0.1117;699;0.0390;
460;0.1140;700;0.0381;
461;0.1160;701;0.0375;
462;0.1180;702;0.0364;
463;0.1203;703;0.0346;
464;0.1230;704;0.0344;
465;0.1253;705;0.0333;
466;0.1284;706;0.0327;
467;0.1305;707;0.0326;
468;0.1338;708;0.0315;
469;0.1376;709;0.0305;
470;0.1406;710;0.0291;
471;0.1439;711;0.0291;
472;0.1468;712;0.0280;
473;0.1510;713;0.0272;
474;0.1546;714;0.0274;
475;0.1583;715;0.0260;
476;0.1617;716;0.0252;
477;0.1658;717;0.0242;
478;0.1700;718;0.0245;
479;0.1734;719;0.0233;
480;0.1777;720;0.0221;
481;0.1816;721;0.0223;
482;0.1854;722;0.0214;
483;0.1902;723;0.0204;
484;0.1941;724;0.0199;
485;0.1985;725;0.0197;
486;0.2027;726;0.0190;
487;0.2070;727;0.0189;
488;0.2117;728;0.0189;
489;0.2167;729;0.0186;
490;0.2221;730;0.0175;
491;0.2279;731;0.0174;
492;0.2341;732;0.0168;
493;0.2405;733;0.0161;
494;0.2477;734;0.0156;
495;0.2555;735;0.0151;
496;0.2638;736;0.0147;
497;0.2725;737;0.0146;
498;0.2819;738;0.0135;
499;0.2928;739;0.0131;
500;0.3038;740;0.0133;
501;0.3149;741;0.0131;
502;0.3268;742;0.0119;
503;0.3390;743;0.0117;
504;0.3519;744;0.0120;
505;0.3651;745;0.0112;
506;0.3784;746;0.0114;
507;0.3917;747;0.0108;
508;0.4056;748;0.0104;
509;0.4185;749;0.0096;
510;0.4324;750;0.0100;
511;0.4456;;;
512;0.4577;;;
513;0.4698;;;
514;0.4818;;;
515;0.4926;;;
516;0.5019;;;
517;0.5117;;;
518;0.5190;;;
519;0.5267;;;
520;0.5326;;;
521;0.5382;;;
522;0.5421;;;
523;0.5468;;;
524;0.5506;;;
525;0.5544;;;
526;0.5579;;;
527;0.5619;;;
528;0.5663;;;
529;0.5716;;;
530;0.5784;;;
531;0.5857;;;
532;0.5954;;;
533;0.6061;;;
534;0.6193;;;
535;0.6333;;;
536;0.6512;;;
537;0.6698;;;
538;0.6892;;;
539;0.7122;;;
540;0.7358;;;
541;0.7600;;;
542;0.7856;;;
543;0.8133;;;
544;0.8395;;;
545;0.8664;;;
546;0.8917;;;
547;0.9159;;;
548;0.9379;;;
549;0.9577;;;
550;0.9748;;;
551;0.9875;;;
552;0.9958;;;
553;1.0000;;;
554;0.9992;;;
555;0.9949;;;
556;0.9829;;;
557;0.9666;;;
558;0.9446;;;
559;0.9185;;;
560;0.8869;;;
561;0.8538;;;
562;0.8167;;;
563;0.7773;;;
564;0.7369;;;
565;0.6946;;;
566;0.6523;;;
567;0.6088;;;
568;0.5661;;;
569;0.5243;;;
570;0.4838;;;
571;0.4447;;;
572;0.4086;;;
573;0.3733;;;
574;0.3403;;;
575;0.3105;;;
576;0.2824;;;
577;0.2576;;;
578;0.2341;;;
579;0.2125;;;
580;0.1928;;;
581;0.1746;;;
582;0.1590;;;
583;0.1444;;;
584;0.1315;;;
585;0.1194;;;
586;0.1090;;;
587;0.0993;;;
588;0.0912;;;
589;0.0842;;;
590;0.0773;;;
591;0.0710;;;
592;0.0657;;;
593;0.0609;;;
594;0.0569;;;
595;0.0533;;;
596;0.0507;;;
597;0.0464;;;
598;0.0436;;;
599;0.0411;;;
600;0.0388;;;
601;0.0372;;;
602;0.0348;;;
603;0.0333;;;
604;0.0314;;;
605;0.0295;;;
606;0.0285;;;
607;0.0274;;;
608;0.0257;;;
609;0.0243;;;
610;0.0236;;;
611;0.0226;;;
612;0.0210;;;
613;0.0206;;;
614;0.0189;;;
615;0.0189;;;
616;0.0178;;;
617;0.0173;;;
618;0.0164;;;
619;0.0154;;;
620;0.0150;;;
621;0.0146;;;
622;0.0137;;;
623;0.0136;;;
624;0.0129;;;
625;0.0122;;;
626;0.0114;;;
627;0.0109;;;
628;0.0105;;;
629;0.0102;;;
630;0.0095;;;
631;0.0091;;;
632;0.0086;;;
633;0.0091;;;
634;0.0086;;;
635;0.0076;;;
636;0.0080;;;
637;0.0074;;;
638;0.0075;;;
639;0.0074;;;
640;0.0066;;;
641;0.0067;;;
642;0.0062;;;
643;0.0062;;;
644;0.0058;;;
645;0.0058;;;
646;0.0057;;;
647;0.0055;;;
648;0.0054;;;
649;0.0049;;;
