Absorption wavelength (nm);normalized Absorption;emission wavelength (nm);Normalized emission;
250;0.2137;510;0.0066;
251;0.2028;511;0.0070;
252;0.1945;512;0.0077;
253;0.1884;513;0.0086;
254;0.1847;514;0.0093;
255;0.1818;515;0.0104;
256;0.1803;516;0.0113;
257;0.1781;517;0.0129;
258;0.1770;518;0.0145;
259;0.1757;519;0.0160;
260;0.1745;520;0.0178;
261;0.1734;521;0.0198;
262;0.1717;522;0.0221;
263;0.1699;523;0.0247;
264;0.1679;524;0.0274;
265;0.1647;525;0.0309;
266;0.1607;526;0.0341;
267;0.1575;527;0.0377;
268;0.1542;528;0.0415;
269;0.1506;529;0.0467;
270;0.1460;530;0.0512;
271;0.1407;531;0.0565;
272;0.1347;532;0.0626;
273;0.1271;533;0.0692;
274;0.1195;534;0.0767;
275;0.1109;535;0.0835;
276;0.1042;536;0.0916;
277;0.0978;537;0.0998;
278;0.0927;538;0.1086;
279;0.0884;539;0.1191;
280;0.0853;540;0.1290;
281;0.0824;541;0.1400;
282;0.0806;542;0.1522;
283;0.0787;543;0.1644;
284;0.0776;544;0.1777;
285;0.0775;545;0.1920;
286;0.0780;546;0.2069;
287;0.0787;547;0.2206;
288;0.0800;548;0.2365;
289;0.0805;549;0.2535;
290;0.0825;550;0.2721;
291;0.0843;551;0.2896;
292;0.0856;552;0.3087;
293;0.0876;553;0.3266;
294;0.0898;554;0.3479;
295;0.0915;555;0.3690;
296;0.0932;556;0.3898;
297;0.0954;557;0.4115;
298;0.0969;558;0.4337;
299;0.0992;559;0.4559;
300;0.1008;560;0.4779;
301;0.1021;561;0.5018;
302;0.1037;562;0.5237;
303;0.1053;563;0.5481;
304;0.1077;564;0.5694;
305;0.1090;565;0.5934;
306;0.1109;566;0.6190;
307;0.1128;567;0.6394;
308;0.1153;568;0.6646;
309;0.1165;569;0.6878;
310;0.1189;570;0.7100;
311;0.1215;571;0.7316;
312;0.1234;572;0.7509;
313;0.1249;573;0.7735;
314;0.1262;574;0.7964;
315;0.1282;575;0.8111;
316;0.1301;576;0.8366;
317;0.1313;577;0.8487;
318;0.1323;578;0.8660;
319;0.1337;579;0.8843;
320;0.1330;580;0.9005;
321;0.1351;581;0.9149;
322;0.1362;582;0.9320;
323;0.1367;583;0.9391;
324;0.1368;584;0.9526;
325;0.1365;585;0.9598;
326;0.1378;586;0.9697;
327;0.1374;587;0.9753;
328;0.1405;588;0.9852;
329;0.1402;589;0.9885;
330;0.1420;590;0.9983;
331;0.1417;591;0.9948;
332;0.1428;592;1.0000;
333;0.1419;593;0.9955;
334;0.1416;594;0.9985;
335;0.1390;595;0.9921;
336;0.1371;596;0.9903;
337;0.1342;597;0.9866;
338;0.1293;598;0.9843;
339;0.1259;599;0.9743;
340;0.1217;600;0.9694;
341;0.1174;601;0.9576;
342;0.1132;602;0.9519;
343;0.1099;603;0.9343;
344;0.1064;604;0.9280;
345;0.1038;605;0.9166;
346;0.1007;606;0.9066;
347;0.0985;607;0.8910;
348;0.0959;608;0.8787;
349;0.0931;609;0.8615;
350;0.0910;610;0.8470;
351;0.0889;611;0.8295;
352;0.0874;612;0.8176;
353;0.0851;613;0.7976;
354;0.0834;614;0.7859;
355;0.0814;615;0.7656;
356;0.0798;616;0.7537;
357;0.0777;617;0.7340;
358;0.0766;618;0.7193;
359;0.0758;619;0.6999;
360;0.0753;620;0.6835;
361;0.0753;621;0.6696;
362;0.0750;622;0.6522;
363;0.0741;623;0.6343;
364;0.0728;624;0.6217;
365;0.0714;625;0.6023;
366;0.0691;626;0.5871;
367;0.0659;627;0.5713;
368;0.0619;628;0.5578;
369;0.0576;629;0.5412;
370;0.0531;630;0.5276;
371;0.0486;631;0.5097;
372;0.0438;632;0.4987;
373;0.0398;633;0.4844;
374;0.0360;634;0.4714;
375;0.0332;635;0.4552;
376;0.0304;636;0.4443;
377;0.0271;637;0.4315;
378;0.0244;638;0.4211;
379;0.0226;639;0.4051;
380;0.0206;640;0.3970;
381;0.0187;641;0.3823;
382;0.0165;642;0.3736;
383;0.0155;643;0.3612;
384;0.0142;644;0.3526;
385;0.0126;645;0.3405;
386;0.0111;646;0.3312;
387;0.0101;647;0.3207;
388;0.0092;648;0.3121;
389;0.0083;649;0.3014;
390;0.0077;650;0.2941;
391;0.0079;651;0.2836;
392;0.0074;652;0.2762;
393;0.0069;653;0.2674;
394;0.0066;654;0.2597;
395;0.0068;655;0.2518;
396;0.0064;656;0.2453;
397;0.0067;657;0.2377;
398;0.0067;658;0.2305;
399;0.0072;659;0.2226;
400;0.0072;660;0.2166;
401;0.0082;661;0.2097;
402;0.0090;662;0.2045;
403;0.0094;663;0.1975;
404;0.0106;664;0.1917;
405;0.0114;665;0.1853;
406;0.0127;666;0.1809;
407;0.0135;667;0.1727;
408;0.0147;668;0.1687;
409;0.0159;669;0.1633;
410;0.0176;670;0.1586;
411;0.0193;671;0.1535;
412;0.0212;672;0.1478;
413;0.0232;673;0.1438;
414;0.0251;674;0.1391;
415;0.0270;675;0.1344;
416;0.0293;676;0.1308;
417;0.0316;677;0.1262;
418;0.0344;678;0.1219;
419;0.0368;679;0.1178;
420;0.0394;680;0.1146;
421;0.0426;681;0.1096;
422;0.0457;682;0.1069;
423;0.0491;683;0.1031;
424;0.0521;684;0.1003;
425;0.0556;685;0.0968;
426;0.0594;686;0.0938;
427;0.0632;687;0.0902;
428;0.0673;688;0.0879;
429;0.0715;689;0.0843;
430;0.0759;690;0.0816;
431;0.0807;691;0.0784;
432;0.0853;692;0.0762;
433;0.0906;693;0.0737;
434;0.0959;694;0.0710;
435;0.1012;695;0.0691;
436;0.1067;696;0.0671;
437;0.1127;697;0.0637;
438;0.1193;698;0.0623;
439;0.1253;699;0.0597;
440;0.1323;700;0.0581;
441;0.1392;;;
442;0.1466;;;
443;0.1541;;;
444;0.1615;;;
445;0.1695;;;
446;0.1780;;;
447;0.1867;;;
448;0.1950;;;
449;0.2048;;;
450;0.2145;;;
451;0.2239;;;
452;0.2343;;;
453;0.2446;;;
454;0.2550;;;
455;0.2658;;;
456;0.2772;;;
457;0.2884;;;
458;0.3007;;;
459;0.3128;;;
460;0.3255;;;
461;0.3384;;;
462;0.3518;;;
463;0.3652;;;
464;0.3791;;;
465;0.3930;;;
466;0.4070;;;
467;0.4214;;;
468;0.4360;;;
469;0.4509;;;
470;0.4664;;;
471;0.4822;;;
472;0.4977;;;
473;0.5138;;;
474;0.5299;;;
475;0.5461;;;
476;0.5624;;;
477;0.5788;;;
478;0.5949;;;
479;0.6119;;;
480;0.6282;;;
481;0.6454;;;
482;0.6616;;;
483;0.6785;;;
484;0.6949;;;
485;0.7114;;;
486;0.7276;;;
487;0.7436;;;
488;0.7599;;;
489;0.7748;;;
490;0.7906;;;
491;0.8055;;;
492;0.8207;;;
493;0.8352;;;
494;0.8492;;;
495;0.8633;;;
496;0.8767;;;
497;0.8899;;;
498;0.9025;;;
499;0.9144;;;
500;0.9252;;;
501;0.9360;;;
502;0.9457;;;
503;0.9552;;;
504;0.9639;;;
505;0.9719;;;
506;0.9787;;;
507;0.9847;;;
508;0.9901;;;
509;0.9936;;;
510;0.9971;;;
511;0.9989;;;
512;1.0000;;;
513;0.9996;;;
514;0.9986;;;
515;0.9956;;;
516;0.9919;;;
517;0.9868;;;
518;0.9809;;;
519;0.9730;;;
520;0.9647;;;
521;0.9542;;;
522;0.9430;;;
523;0.9305;;;
524;0.9171;;;
525;0.9023;;;
526;0.8862;;;
527;0.8694;;;
528;0.8511;;;
529;0.8324;;;
530;0.8122;;;
531;0.7914;;;
532;0.7698;;;
533;0.7478;;;
534;0.7254;;;
535;0.7022;;;
536;0.6790;;;
537;0.6553;;;
538;0.6311;;;
539;0.6064;;;
540;0.5819;;;
541;0.5574;;;
542;0.5329;;;
543;0.5088;;;
544;0.4848;;;
545;0.4615;;;
546;0.4382;;;
547;0.4159;;;
548;0.3934;;;
549;0.3719;;;
550;0.3506;;;
551;0.3297;;;
552;0.3098;;;
553;0.2904;;;
554;0.2719;;;
555;0.2544;;;
556;0.2369;;;
557;0.2208;;;
558;0.2053;;;
559;0.1905;;;
560;0.1765;;;
561;0.1632;;;
562;0.1506;;;
563;0.1384;;;
564;0.1275;;;
565;0.1165;;;
566;0.1067;;;
567;0.0973;;;
568;0.0890;;;
569;0.0806;;;
570;0.0734;;;
571;0.0665;;;
572;0.0603;;;
573;0.0540;;;
574;0.0484;;;
575;0.0433;;;
576;0.0387;;;
577;0.0347;;;
578;0.0303;;;
579;0.0272;;;
580;0.0234;;;
581;0.0209;;;
582;0.0180;;;
583;0.0156;;;
584;0.0133;;;
585;0.0112;;;
586;0.0091;;;
587;0.0077;;;
588;0.0064;;;
589;0.0045;;;
590;0.0036;;;
591;0.0022;;;
592;0.0015;;;
593;0.0003;;;
594;-0.0003;;;
595;-0.0011;;;
596;-0.0017;;;
597;-0.0025;;;
598;-0.0030;;;
599;-0.0036;;;
600;-0.0041;;;
601;-0.0048;;;
602;-0.0047;;;
603;-0.0051;;;
604;-0.0052;;;
605;-0.0056;;;
606;-0.0057;;;
607;-0.0060;;;
608;-0.0060;;;
609;-0.0064;;;
610;-0.0064;;;
611;-0.0066;;;
612;-0.0068;;;
613;-0.0068;;;
614;-0.0070;;;
615;-0.0071;;;
616;-0.0070;;;
617;-0.0068;;;
618;-0.0070;;;
619;-0.0074;;;
620;-0.0071;;;
621;-0.0070;;;
622;-0.0071;;;
623;-0.0070;;;
624;-0.0072;;;
625;-0.0070;;;
626;-0.0070;;;
627;-0.0070;;;
628;-0.0071;;;
629;-0.0069;;;
630;-0.0071;;;
631;-0.0074;;;
632;-0.0073;;;
633;-0.0072;;;
634;-0.0069;;;
635;-0.0071;;;
636;-0.0068;;;
637;-0.0073;;;
638;-0.0072;;;
639;-0.0073;;;
640;-0.0070;;;
641;-0.0071;;;
642;-0.0075;;;
643;-0.0072;;;
644;-0.0071;;;
645;-0.0068;;;
646;-0.0073;;;
647;-0.0073;;;
648;-0.0073;;;
649;-0.0074;;;
650;-0.0073;;;
651;-0.0069;;;
652;-0.0072;;;
653;-0.0071;;;
654;-0.0071;;;
655;-0.0072;;;
656;-0.0068;;;
657;-0.0070;;;
658;-0.0068;;;
659;-0.0068;;;
660;-0.0067;;;
661;-0.0068;;;
662;-0.0066;;;
663;-0.0069;;;
664;-0.0071;;;
665;-0.0068;;;
666;-0.0069;;;
667;-0.0069;;;
668;-0.0070;;;
669;-0.0070;;;
670;-0.0069;;;
671;-0.0069;;;
672;-0.0072;;;
673;-0.0069;;;
674;-0.0073;;;
675;-0.0070;;;
676;-0.0072;;;
677;-0.0070;;;
678;-0.0074;;;
679;-0.0072;;;
680;-0.0071;;;
681;-0.0071;;;
682;-0.0070;;;
683;-0.0070;;;
684;-0.0071;;;
685;-0.0072;;;
686;-0.0069;;;
687;-0.0073;;;
688;-0.0066;;;
689;-0.0071;;;
690;-0.0068;;;
691;-0.0068;;;
692;-0.0069;;;
693;-0.0070;;;
694;-0.0070;;;
695;-0.0068;;;
696;-0.0069;;;
697;-0.0066;;;
698;-0.0069;;;
699;-0.0066;;;
700;-0.0073;;;
701;-0.0069;;;
702;-0.0069;;;
703;-0.0066;;;
704;-0.0066;;;
705;-0.0068;;;
706;-0.0067;;;
707;-0.0070;;;
708;-0.0066;;;
709;-0.0072;;;
710;-0.0068;;;
711;-0.0070;;;
712;-0.0070;;;
713;-0.0072;;;
714;-0.0069;;;
715;-0.0068;;;
716;-0.0069;;;
717;-0.0071;;;
718;-0.0069;;;
719;-0.0066;;;
720;-0.0066;;;
721;-0.0065;;;
722;-0.0069;;;
723;-0.0064;;;
724;-0.0063;;;
725;-0.0065;;;
726;-0.0067;;;
727;-0.0063;;;
728;-0.0064;;;
729;-0.0066;;;
730;-0.0067;;;
731;-0.0065;;;
732;-0.0063;;;
733;-0.0067;;;
734;-0.0067;;;
735;-0.0069;;;
736;-0.0066;;;
737;-0.0068;;;
738;-0.0065;;;
739;-0.0070;;;
740;-0.0066;;;
741;-0.0067;;;
742;-0.0068;;;
743;-0.0067;;;
744;-0.0072;;;
745;-0.0070;;;
746;-0.0074;;;
747;-0.0066;;;
748;-0.0072;;;
749;-0.0068;;;
750;-0.0069;;;
751;-0.0068;;;
752;-0.0071;;;
753;-0.0064;;;
754;-0.0067;;;
755;-0.0068;;;
756;-0.0067;;;
757;-0.0066;;;
758;-0.0063;;;
759;-0.0066;;;
760;-0.0065;;;
761;-0.0069;;;
762;-0.0063;;;
763;-0.0066;;;
764;-0.0069;;;
765;-0.0068;;;
766;-0.0063;;;
767;-0.0066;;;
768;-0.0068;;;
769;-0.0068;;;
770;-0.0069;;;
771;-0.0064;;;
772;-0.0068;;;
773;-0.0070;;;
774;-0.0071;;;
775;-0.0069;;;
776;-0.0074;;;
777;-0.0072;;;
778;-0.0069;;;
779;-0.0070;;;
780;-0.0069;;;
781;-0.0068;;;
782;-0.0067;;;
783;-0.0069;;;
784;-0.0066;;;
785;-0.0072;;;
786;-0.0070;;;
787;-0.0067;;;
788;-0.0064;;;
789;-0.0067;;;
790;-0.0066;;;
791;-0.0069;;;
792;-0.0066;;;
793;-0.0063;;;
794;-0.0069;;;
795;-0.0069;;;
796;-0.0067;;;
797;-0.0064;;;
798;-0.0065;;;
799;-0.0066;;;
800;-0.0070;;;
801;-0.0067;;;
802;-0.0066;;;
803;-0.0067;;;
804;-0.0065;;;
805;-0.0065;;;
806;-0.0063;;;
807;-0.0066;;;
808;-0.0068;;;
809;-0.0070;;;
810;-0.0065;;;
811;-0.0067;;;
812;-0.0063;;;
813;-0.0069;;;
814;-0.0067;;;
815;-0.0066;;;
816;-0.0066;;;
817;-0.0067;;;
818;-0.0067;;;
819;-0.0068;;;
820;-0.0065;;;
821;-0.0069;;;
822;-0.0068;;;
823;-0.0068;;;
824;-0.0075;;;
825;-0.0064;;;
826;-0.0068;;;
827;-0.0066;;;
828;-0.0069;;;
829;-0.0062;;;
830;-0.0063;;;
831;-0.0061;;;
832;-0.0062;;;
833;-0.0064;;;
834;-0.0063;;;
835;-0.0062;;;
836;-0.0062;;;
837;-0.0063;;;
838;-0.0050;;;
839;-0.0051;;;
840;-0.0054;;;
841;-0.0064;;;
842;-0.0058;;;
843;-0.0061;;;
844;-0.0054;;;
845;-0.0064;;;
846;-0.0059;;;
847;-0.0059;;;
848;-0.0066;;;
849;-0.0057;;;
850;-0.0061;;;
851;-0.0053;;;
852;-0.0060;;;
853;-0.0055;;;
854;-0.0059;;;
855;-0.0054;;;
856;-0.0060;;;
857;-0.0053;;;
858;-0.0062;;;
859;-0.0062;;;
860;-0.0063;;;
861;-0.0062;;;
862;-0.0054;;;
863;-0.0068;;;
864;-0.0047;;;
865;-0.0055;;;
866;-0.0052;;;
867;-0.0051;;;
868;-0.0041;;;
869;-0.0055;;;
870;-0.0068;;;
871;-0.0059;;;
872;-0.0066;;;
873;-0.0062;;;
874;-0.0059;;;
875;-0.0054;;;
876;-0.0050;;;
877;-0.0040;;;
878;-0.0052;;;
879;-0.0038;;;
880;-0.0032;;;
881;-0.0045;;;
882;-0.0083;;;
883;-0.0065;;;
884;-0.0055;;;
885;-0.0077;;;
886;-0.0087;;;
887;-0.0036;;;
888;-0.0050;;;
889;-0.0049;;;
890;-0.0050;;;
891;-0.0078;;;
892;-0.0070;;;
893;-0.0074;;;
894;-0.0055;;;
895;-0.0063;;;
896;-0.0022;;;
897;-0.0072;;;
898;-0.0048;;;
899;-0.0028;;;
