Absorption wavelength (nm);normalized Absorption;emission wavelength (nm);Normalized emission;
300;1.0000;500;0.0001;
301;0.9774;501;0.0002;
302;0.9557;502;0.0002;
303;0.9362;503;0.0002;
304;0.9174;504;0.0003;
305;0.8980;505;0.0003;
306;0.8787;506;0.0004;
307;0.8606;507;0.0005;
308;0.8419;508;0.0006;
309;0.8232;509;0.0008;
310;0.8037;510;0.0009;
311;0.7858;511;0.0011;
312;0.7690;512;0.0013;
313;0.7529;513;0.0015;
314;0.7370;514;0.0019;
315;0.7211;515;0.0022;
316;0.7073;516;0.0026;
317;0.6926;517;0.0032;
318;0.6808;518;0.0038;
319;0.6683;519;0.0045;
320;0.6565;520;0.0053;
321;0.6456;521;0.0063;
322;0.6359;522;0.0076;
323;0.6262;523;0.0091;
324;0.6169;524;0.0110;
325;0.6094;525;0.0131;
326;0.6003;526;0.0156;
327;0.5828;527;0.0187;
328;0.5807;528;0.0226;
329;0.5772;529;0.0270;
330;0.5699;530;0.0325;
331;0.5623;531;0.0386;
332;0.5556;532;0.0460;
333;0.5491;533;0.0542;
334;0.5427;534;0.0639;
335;0.5356;535;0.0743;
336;0.5293;536;0.0877;
337;0.5227;537;0.1014;
338;0.5165;538;0.1178;
339;0.5102;539;0.1356;
340;0.5050;540;0.1570;
341;0.4983;541;0.1788;
342;0.4940;542;0.2061;
343;0.4888;543;0.2329;
344;0.4839;544;0.2652;
345;0.4788;545;0.2980;
346;0.4742;546;0.3366;
347;0.4690;547;0.3745;
348;0.4651;548;0.4197;
349;0.4608;549;0.4640;
350;0.4564;550;0.5132;
351;0.4506;551;0.5610;
352;0.4468;552;0.6125;
353;0.4431;553;0.6614;
354;0.4394;554;0.7125;
355;0.4356;555;0.7611;
356;0.4322;556;0.8078;
357;0.4285;557;0.8499;
358;0.4251;558;0.8906;
359;0.4215;559;0.9244;
360;0.4182;560;0.9527;
361;0.4146;561;0.9744;
362;0.4110;562;0.9892;
363;0.4073;563;0.9981;
364;0.4038;564;1.0000;
365;0.3999;565;0.9955;
366;0.3962;566;0.9845;
367;0.3924;567;0.9695;
368;0.3885;568;0.9453;
369;0.3846;569;0.9217;
370;0.3807;570;0.8913;
371;0.3768;571;0.8561;
372;0.3727;572;0.8156;
373;0.3688;573;0.7777;
374;0.3647;574;0.7314;
375;0.3608;575;0.6882;
376;0.3566;576;0.6440;
377;0.3527;577;0.6036;
378;0.3488;578;0.5560;
379;0.3448;579;0.5152;
380;0.3411;580;0.4712;
381;0.3372;581;0.4314;
382;0.3336;582;0.3920;
383;0.3299;583;0.3598;
384;0.3266;584;0.3259;
385;0.3195;585;0.2966;
386;0.3163;586;0.2656;
387;0.3130;587;0.2404;
388;0.3100;588;0.2154;
389;0.3068;589;0.1936;
390;0.3038;590;0.1723;
391;0.3006;591;0.1543;
392;0.2976;592;0.1381;
393;0.2945;593;0.1232;
394;0.2914;594;0.1091;
395;0.2883;595;0.0972;
396;0.2852;596;0.0865;
397;0.2821;597;0.0765;
398;0.2790;598;0.0678;
399;0.2759;599;0.0604;
400;0.2727;600;0.0529;
401;0.2697;601;0.0466;
402;0.2666;602;0.0412;
403;0.2637;603;0.0365;
404;0.2607;604;0.0320;
405;0.2578;605;0.0283;
406;0.2548;606;0.0250;
407;0.2520;607;0.0219;
408;0.2490;608;0.0193;
409;0.2461;609;0.0170;
410;0.2431;610;0.0150;
411;0.2401;611;0.0130;
412;0.2370;612;0.0114;
413;0.2339;613;0.0102;
414;0.2307;614;0.0089;
415;0.2273;615;0.0078;
416;0.2240;616;0.0068;
417;0.2206;617;0.0061;
418;0.2173;618;0.0053;
419;0.2137;619;0.0046;
420;0.2104;620;0.0040;
421;0.2069;621;0.0037;
422;0.2036;622;0.0031;
423;0.2006;623;0.0028;
424;0.1975;624;0.0024;
425;0.1944;625;0.0021;
426;0.1914;626;0.0019;
427;0.1886;627;0.0016;
428;0.1860;628;0.0014;
429;0.1834;629;0.0012;
430;0.1810;630;0.0011;
431;0.1787;631;0.0010;
432;0.1765;632;0.0009;
433;0.1744;633;0.0007;
434;0.1724;634;0.0007;
435;0.1705;635;0.0006;
436;0.1686;636;0.0005;
437;0.1668;637;0.0005;
438;0.1649;638;0.0004;
439;0.1632;639;0.0004;
440;0.1613;640;0.0004;
441;0.1594;641;0.0003;
442;0.1576;642;0.0003;
443;0.1556;643;0.0003;
444;0.1536;644;0.0002;
445;0.1516;645;0.0002;
446;0.1495;646;0.0003;
447;0.1474;647;0.0002;
448;0.1452;648;0.0001;
449;0.1429;649;0.0002;
450;0.1406;650;0.0002;
451;0.1383;651;0.0002;
452;0.1360;652;0.0002;
453;0.1336;653;0.0002;
454;0.1313;654;0.0002;
455;0.1289;655;0.0003;
456;0.1266;656;0.0002;
457;0.1242;657;0.0002;
458;0.1220;658;0.0002;
459;0.1197;659;0.0002;
460;0.1174;660;0.0002;
461;0.1151;661;0.0002;
462;0.1130;662;0.0002;
463;0.1107;663;0.0002;
464;0.1085;664;0.0002;
465;0.1064;665;0.0001;
466;0.1044;666;0.0001;
467;0.1024;667;0.0001;
468;0.1004;668;0.0000;
469;0.0986;669;0.0000;
470;0.0969;670;0.0001;
471;0.0954;671;0.0001;
472;0.0939;672;0.0001;
473;0.0927;673;0.0001;
474;0.0915;674;0.0000;
475;0.0905;675;0.0000;
476;0.0896;676;0.0000;
477;0.0888;678;0.0001;
478;0.0880;679;0.0000;
479;0.0873;680;0.0000;
480;0.0866;681;0.0001;
481;0.0860;682;0.0000;
482;0.0854;684;0.0001;
483;0.0849;688;0.0001;
484;0.0843;689;0.0000;
485;0.0838;690;0.0000;
486;0.0832;691;0.0000;
487;0.0826;693;0.0000;
488;0.0821;695;0.0001;
489;0.0814;696;0.0001;
490;0.0806;697;0.0000;
491;0.0798;698;0.0000;
492;0.0789;700;0.0000;
493;0.0778;701;0.0000;
494;0.0766;702;0.0001;
495;0.0752;706;0.0000;
496;0.0737;707;0.0000;
497;0.0719;709;0.0001;
498;0.0700;712;0.0000;
499;0.0680;713;0.0000;
500;0.0659;715;0.0001;
501;0.0636;716;0.0000;
502;0.0612;717;0.0001;
503;0.0588;718;0.0000;
504;0.0562;719;0.0000;
505;0.0537;720;0.0001;
506;0.0511;721;0.0001;
507;0.0487;722;0.0001;
508;0.0462;723;0.0001;
509;0.0439;724;0.0002;
510;0.0417;725;0.0001;
511;0.0396;727;0.0000;
512;0.0377;728;0.0001;
513;0.0359;729;0.0001;
514;0.0344;730;0.0001;
515;0.0331;731;0.0001;
516;0.0320;732;0.0000;
517;0.0312;733;0.0000;
518;0.0307;734;0.0000;
519;0.0305;735;0.0001;
520;0.0305;736;0.0002;
521;0.0310;737;0.0002;
522;0.0317;738;0.0001;
523;0.0327;739;0.0001;
524;0.0340;740;0.0001;
525;0.0357;741;0.0000;
526;0.0376;742;0.0001;
527;0.0398;743;0.0001;
528;0.0424;744;0.0002;
529;0.0450;747;0.0001;
530;0.0479;748;0.0002;
531;0.0509;749;0.0001;
532;0.0540;750;0.0001;
533;0.0571;751;0.0001;
534;0.0602;752;0.0001;
535;0.0632;753;0.0000;
536;0.0662;755;0.0002;
537;0.0688;756;0.0002;
538;0.0712;757;0.0001;
539;0.0733;758;0.0002;
540;0.0752;759;0.0001;
541;0.0767;762;0.0002;
542;0.0778;763;0.0000;
543;0.0787;764;0.0000;
544;0.0793;765;0.0001;
545;0.0795;766;0.0000;
546;0.0795;768;0.0001;
547;0.0793;769;0.0002;
548;0.0788;771;0.0001;
549;0.0782;772;0.0001;
550;0.0774;773;0.0002;
551;0.0763;774;0.0001;
552;0.0751;775;0.0000;
553;0.0737;776;0.0001;
554;0.0721;777;0.0002;
555;0.0703;778;0.0002;
556;0.0683;779;0.0002;
557;0.0661;781;0.0001;
558;0.0636;782;0.0001;
559;0.0609;783;0.0003;
560;0.0580;784;0.0001;
561;0.0550;786;0.0001;
562;0.0518;787;0.0003;
563;0.0486;788;0.0002;
564;0.0453;789;0.0002;
565;0.0421;790;0.0002;
566;0.0387;791;0.0001;
567;0.0356;792;0.0001;
568;0.0324;793;0.0001;
569;0.0294;794;0.0001;
570;0.0264;795;0.0001;
571;0.0237;798;0.0002;
572;0.0211;799;0.0000;
573;0.0187;800;0.0001;
574;0.0165;;;
575;0.0145;;;
576;0.0127;;;
577;0.0110;;;
578;0.0095;;;
579;0.0082;;;
580;0.0071;;;
581;0.0060;;;
582;0.0051;;;
583;0.0044;;;
584;0.0037;;;
585;0.0031;;;
586;0.0026;;;
587;0.0022;;;
588;0.0018;;;
589;0.0015;;;
590;0.0013;;;
591;0.0011;;;
592;0.0009;;;
593;0.0008;;;
594;0.0006;;;
595;0.0005;;;
596;0.0005;;;
597;0.0004;;;
598;0.0003;;;
599;0.0003;;;
600;0.0002;;;
601;0.0002;;;
602;0.0002;;;
603;0.0001;;;
604;0.0001;;;
605;0.0001;;;
606;0.0001;;;
607;0.0001;;;
608;0.0001;;;
609;0.0001;;;
610;0.0001;;;
611;0.0001;;;
612;0.0000;;;
613;0.0001;;;
614;0.0001;;;
615;0.0000;;;
616;0.0001;;;
617;0.0000;;;
618;0.0000;;;
619;0.0000;;;
620;0.0000;;;
621;0.0000;;;
622;0.0000;;;
623;0.0000;;;
624;0.0000;;;
625;0.0000;;;
626;0.0000;;;
627;0.0000;;;
628;0.0000;;;
629;0.0000;;;
630;0.0000;;;
632;0.0000;;;
634;0.0000;;;
635;0.0000;;;
636;0.0000;;;
638;0.0000;;;
639;0.0000;;;
644;0.0000;;;
647;0.0000;;;
648;0.0000;;;
