Exitation wavelength (nm);normalized Exitation;emission wavelength (nm);Normalized emission;
250;0.3849;495;0.0339;
251;0.3507;496;0.0391;
252;0.3249;497;0.0490;
253;0.3032;498;0.0610;
254;0.2788;499;0.0754;
255;0.2643;500;0.0931;
256;0.2518;501;0.1125;
257;0.2374;502;0.1349;
258;0.2286;503;0.1596;
259;0.2211;504;0.1907;
260;0.2128;505;0.2238;
261;0.2078;506;0.2617;
262;0.2033;507;0.3064;
263;0.1974;508;0.3538;
264;0.1929;509;0.4038;
265;0.1881;510;0.4574;
266;0.1808;511;0.5097;
267;0.1752;512;0.5661;
268;0.1689;513;0.6191;
269;0.1601;514;0.6760;
270;0.1541;515;0.7311;
271;0.1484;516;0.7819;
272;0.1413;517;0.8304;
273;0.1364;518;0.8709;
274;0.1320;519;0.9098;
275;0.1269;520;0.9374;
276;0.1239;521;0.9658;
277;0.1212;522;0.9817;
278;0.1181;523;0.9958;
279;0.1165;524;0.9992;
280;0.1151;525;1.0000;
281;0.1134;526;0.9994;
282;0.1125;527;0.9878;
283;0.1115;528;0.9769;
284;0.1105;529;0.9613;
285;0.1099;530;0.9398;
286;0.1094;531;0.9189;
287;0.1085;532;0.8970;
288;0.1081;533;0.8703;
289;0.1074;534;0.8438;
290;0.1062;535;0.8182;
291;0.1049;536;0.7892;
292;0.1031;537;0.7632;
293;0.1001;538;0.7355;
294;0.0974;539;0.7072;
295;0.0943;540;0.6791;
296;0.0898;541;0.6511;
297;0.0864;542;0.6267;
298;0.0828;543;0.6033;
299;0.0781;544;0.5844;
300;0.0750;545;0.5641;
301;0.0721;546;0.5427;
302;0.0681;547;0.5236;
303;0.0658;548;0.5033;
304;0.0638;549;0.4876;
305;0.0610;550;0.4728;
306;0.0595;551;0.4596;
307;0.0583;552;0.4447;
308;0.0568;553;0.4323;
309;0.0561;554;0.4192;
310;0.0556;555;0.4068;
311;0.0556;556;0.3975;
312;0.0559;557;0.3876;
313;0.0562;558;0.3788;
314;0.0570;559;0.3682;
315;0.0577;560;0.3589;
316;0.0585;561;0.3494;
317;0.0596;562;0.3392;
318;0.0603;563;0.3307;
319;0.0610;564;0.3224;
320;0.0621;565;0.3105;
321;0.0627;566;0.3054;
322;0.0636;567;0.2964;
323;0.0651;568;0.2891;
324;0.0665;569;0.2796;
325;0.0679;570;0.2716;
326;0.0700;571;0.2654;
327;0.0720;572;0.2564;
328;0.0740;573;0.2489;
329;0.0770;574;0.2396;
330;0.0792;575;0.2317;
331;0.0814;576;0.2229;
332;0.0833;577;0.2151;
333;0.0841;578;0.2084;
334;0.0842;579;0.2009;
335;0.0830;580;0.1937;
336;0.0817;581;0.1888;
337;0.0803;582;0.1801;
338;0.0767;583;0.1730;
339;0.0732;584;0.1669;
340;0.0695;585;0.1598;
341;0.0643;586;0.1529;
342;0.0605;587;0.1460;
343;0.0568;588;0.1411;
344;0.0516;589;0.1352;
345;0.0478;590;0.1292;
346;0.0444;591;0.1249;
347;0.0397;592;0.1193;
348;0.0362;593;0.1148;
349;0.0330;594;0.1112;
350;0.0290;595;0.1067;
351;0.0263;596;0.1025;
352;0.0238;597;0.0985;
353;0.0212;598;0.0940;
354;0.0193;599;0.0909;
355;0.0177;600;0.0883;
356;0.0157;601;0.0841;
357;0.0145;602;0.0798;
358;0.0134;603;0.0787;
359;0.0124;604;0.0750;
360;0.0117;605;0.0724;
361;0.0113;606;0.0693;
362;0.0110;607;0.0660;
363;0.0108;608;0.0640;
364;0.0106;609;0.0612;
365;0.0106;610;0.0591;
366;0.0106;611;0.0569;
367;0.0105;612;0.0544;
368;0.0108;613;0.0519;
369;0.0109;614;0.0508;
370;0.0109;615;0.0487;
371;0.0109;616;0.0476;
372;0.0111;617;0.0463;
373;0.0113;618;0.0454;
374;0.0114;619;0.0432;
375;0.0116;620;0.0425;
376;0.0118;621;0.0404;
377;0.0123;622;0.0395;
378;0.0124;623;0.0389;
379;0.0124;624;0.0373;
380;0.0130;625;0.0366;
381;0.0133;626;0.0350;
382;0.0136;627;0.0341;
383;0.0140;628;0.0330;
384;0.0145;629;0.0315;
385;0.0148;630;0.0314;
386;0.0152;631;0.0306;
387;0.0155;632;0.0299;
388;0.0156;633;0.0286;
389;0.0157;634;0.0274;
390;0.0158;635;0.0261;
391;0.0158;636;0.0255;
392;0.0158;637;0.0249;
393;0.0158;638;0.0242;
394;0.0157;639;0.0228;
395;0.0156;640;0.0220;
396;0.0158;641;0.0206;
397;0.0158;642;0.0202;
398;0.0158;643;0.0197;
399;0.0160;644;0.0188;
400;0.0163;645;0.0183;
401;0.0163;646;0.0184;
402;0.0167;647;0.0168;
403;0.0168;648;0.0164;
404;0.0170;649;0.0156;
405;0.0171;650;0.0155;
406;0.0171;;;
407;0.0174;;;
408;0.0176;;;
409;0.0176;;;
410;0.0177;;;
411;0.0178;;;
412;0.0179;;;
413;0.0180;;;
414;0.0182;;;
415;0.0184;;;
416;0.0185;;;
417;0.0187;;;
418;0.0192;;;
419;0.0198;;;
420;0.0202;;;
421;0.0208;;;
422;0.0218;;;
423;0.0226;;;
424;0.0234;;;
425;0.0248;;;
426;0.0259;;;
427;0.0274;;;
428;0.0295;;;
429;0.0311;;;
430;0.0328;;;
431;0.0354;;;
432;0.0377;;;
433;0.0400;;;
434;0.0432;;;
435;0.0456;;;
436;0.0480;;;
437;0.0516;;;
438;0.0544;;;
439;0.0570;;;
440;0.0607;;;
441;0.0638;;;
442;0.0665;;;
443;0.0706;;;
444;0.0737;;;
445;0.0768;;;
446;0.0814;;;
447;0.0849;;;
448;0.0887;;;
449;0.0942;;;
450;0.0986;;;
451;0.1033;;;
452;0.1105;;;
453;0.1164;;;
454;0.1228;;;
455;0.1321;;;
456;0.1398;;;
457;0.1479;;;
458;0.1599;;;
459;0.1694;;;
460;0.1794;;;
461;0.1940;;;
462;0.2052;;;
463;0.2166;;;
464;0.2327;;;
465;0.2446;;;
466;0.2565;;;
467;0.2722;;;
468;0.2832;;;
469;0.2936;;;
470;0.3066;;;
471;0.3150;;;
472;0.3228;;;
473;0.3321;;;
474;0.3381;;;
475;0.3437;;;
476;0.3509;;;
477;0.3560;;;
478;0.3614;;;
479;0.3695;;;
480;0.3765;;;
481;0.3847;;;
482;0.3984;;;
483;0.4104;;;
484;0.4242;;;
485;0.4458;;;
486;0.4637;;;
487;0.4837;;;
488;0.5144;;;
489;0.5393;;;
490;0.5660;;;
491;0.6060;;;
492;0.6372;;;
493;0.6697;;;
494;0.7163;;;
495;0.7508;;;
496;0.7856;;;
497;0.8328;;;
498;0.8658;;;
499;0.8969;;;
500;0.9352;;;
501;0.9587;;;
502;0.9778;;;
503;0.9949;;;
504;1.0000;;;
505;0.9984;;;
506;0.9850;;;
507;0.9670;;;
508;0.9426;;;
509;0.8990;;;
510;0.8602;;;
511;0.8164;;;
512;0.7494;;;
513;0.6976;;;
514;0.6443;;;
515;0.5703;;;
516;0.5172;;;
517;0.4659;;;
518;0.3990;;;
519;0.3533;;;
520;0.3115;;;
521;0.2607;;;
522;0.2282;;;
523;0.1988;;;
524;0.1639;;;
525;0.1420;;;
526;0.1224;;;
527;0.0994;;;
528;0.0853;;;
529;0.0728;;;
530;0.0585;;;
531;0.0498;;;
532;0.0422;;;
533;0.0338;;;
534;0.0286;;;
535;0.0242;;;
536;0.0192;;;
537;0.0161;;;
538;0.0135;;;
539;0.0108;;;
540;0.0090;;;
541;0.0076;;;
542;0.0061;;;
543;0.0052;;;
544;0.0044;;;
545;0.0035;;;
546;0.0030;;;
547;0.0025;;;
548;0.0022;;;
549;0.0018;;;
550;0.0015;;;
551;0.0013;;;
552;0.0010;;;
553;0.0008;;;
554;0.0008;;;
555;0.0007;;;
556;0.0006;;;
557;0.0005;;;
558;0.0005;;;
559;0.0003;;;
