Absorption wavelength (nm);normalized Absorption;emission wavelength (nm);Normalized emission;
225;0.3555;620;0.0127;
226;0.3119;621;0.0137;
227;0.2600;622;0.0150;
228;0.2284;623;0.0174;
229;0.2038;624;0.0198;
230;0.1774;625;0.0220;
231;0.1613;626;0.0257;
232;0.1484;627;0.0291;
233;0.1340;628;0.0337;
234;0.1250;629;0.0387;
235;0.1173;630;0.0453;
236;0.1088;631;0.0519;
237;0.1029;632;0.0593;
238;0.0981;633;0.0688;
239;0.0920;634;0.0806;
240;0.0880;635;0.0921;
241;0.0847;636;0.1071;
242;0.0808;637;0.1211;
243;0.0778;638;0.1397;
244;0.0751;639;0.1600;
245;0.0723;640;0.1811;
246;0.0703;641;0.2067;
247;0.0686;642;0.2339;
248;0.0668;643;0.2677;
249;0.0659;644;0.3018;
250;0.0654;645;0.3369;
251;0.0651;646;0.3778;
252;0.0653;647;0.4204;
253;0.0656;648;0.4590;
254;0.0664;649;0.5063;
255;0.0673;650;0.5477;
256;0.0681;651;0.5984;
257;0.0696;652;0.6478;
258;0.0711;653;0.7011;
259;0.0725;654;0.7424;
260;0.0748;655;0.7950;
261;0.0771;656;0.8339;
262;0.0797;657;0.8806;
263;0.0832;658;0.9097;
264;0.0864;659;0.9378;
265;0.0895;660;0.9660;
266;0.0939;661;0.9899;
267;0.0971;662;0.9907;
268;0.1002;663;0.9978;
269;0.1046;664;1.0000;
270;0.1081;665;0.9995;
271;0.1113;666;0.9868;
272;0.1156;667;0.9652;
273;0.1191;668;0.9421;
274;0.1230;669;0.9151;
275;0.1282;670;0.8907;
276;0.1322;671;0.8535;
277;0.1362;672;0.8200;
278;0.1409;673;0.7838;
279;0.1439;674;0.7495;
280;0.1468;675;0.7129;
281;0.1501;676;0.6805;
282;0.1526;677;0.6449;
283;0.1546;678;0.6110;
284;0.1570;679;0.5796;
285;0.1581;680;0.5469;
286;0.1591;681;0.5180;
287;0.1601;682;0.4924;
288;0.1603;683;0.4648;
289;0.1596;684;0.4386;
290;0.1583;685;0.4119;
291;0.1566;686;0.3990;
292;0.1551;687;0.3784;
293;0.1530;688;0.3596;
294;0.1509;689;0.3439;
295;0.1493;690;0.3282;
296;0.1464;691;0.3140;
297;0.1439;692;0.3028;
298;0.1411;693;0.2913;
299;0.1360;694;0.2825;
300;0.1322;695;0.2731;
301;0.1284;696;0.2673;
302;0.1238;697;0.2585;
303;0.1208;698;0.2517;
304;0.1185;699;0.2491;
305;0.1161;700;0.2431;
306;0.1151;701;0.2402;
307;0.1146;702;0.2372;
308;0.1148;703;0.2356;
309;0.1156;704;0.2327;
310;0.1170;705;0.2310;
311;0.1190;706;0.2330;
312;0.1208;707;0.2290;
313;0.1233;708;0.2287;
314;0.1272;709;0.2288;
315;0.1304;710;0.2279;
316;0.1340;711;0.2296;
317;0.1394;712;0.2291;
318;0.1437;713;0.2298;
319;0.1481;714;0.2283;
320;0.1540;715;0.2279;
321;0.1595;716;0.2302;
322;0.1650;717;0.2266;
323;0.1724;718;0.2274;
324;0.1789;719;0.2248;
325;0.1854;720;0.2260;
326;0.1944;721;0.2221;
327;0.2020;722;0.2212;
328;0.2092;723;0.2252;
329;0.2187;724;0.2217;
330;0.2264;725;0.2179;
331;0.2344;726;0.2150;
332;0.2452;727;0.2136;
333;0.2529;728;0.2072;
334;0.2613;729;0.2045;
335;0.2729;730;0.2022;
336;0.2819;731;0.1965;
337;0.2904;732;0.1956;
338;0.3015;733;0.1906;
339;0.3093;734;0.1866;
340;0.3165;735;0.1813;
341;0.3254;736;0.1757;
342;0.3314;737;0.1730;
343;0.3371;738;0.1690;
344;0.3431;739;0.1611;
345;0.3473;740;0.1589;
346;0.3503;741;0.1525;
347;0.3527;742;0.1469;
348;0.3540;743;0.1414;
349;0.3559;744;0.1361;
350;0.3570;745;0.1303;
351;0.3574;746;0.1260;
352;0.3572;747;0.1192;
353;0.3560;748;0.1143;
354;0.3549;749;0.1093;
355;0.3530;750;0.1066;
356;0.3487;751;0.1004;
357;0.3448;752;0.0984;
358;0.3401;753;0.0935;
359;0.3323;754;0.0893;
360;0.3246;755;0.0837;
361;0.3162;756;0.0831;
362;0.3042;757;0.0787;
363;0.2939;758;0.0729;
364;0.2839;759;0.0714;
365;0.2704;760;0.0684;
366;0.2601;761;0.0647;
367;0.2513;762;0.0630;
368;0.2406;763;0.0621;
369;0.2339;764;0.0565;
370;0.2284;765;0.0540;
371;0.2227;766;0.0537;
372;0.2194;767;0.0510;
373;0.2164;768;0.0491;
374;0.2129;769;0.0472;
375;0.2093;770;0.0461;
376;0.2055;771;0.0450;
377;0.1985;772;0.0446;
378;0.1914;773;0.0409;
379;0.1836;774;0.0413;
380;0.1715;775;0.0392;
381;0.1608;776;0.0378;
382;0.1503;777;0.0383;
383;0.1362;778;0.0368;
384;0.1252;779;0.0354;
385;0.1153;780;0.0358;
386;0.1036;781;0.0362;
387;0.0945;782;0.0347;
388;0.0872;783;0.0342;
389;0.0785;784;0.0327;
390;0.0725;785;0.0330;
391;0.0678;786;0.0315;
392;0.0626;787;0.0308;
393;0.0587;788;0.0301;
394;0.0557;789;0.0294;
395;0.0525;790;0.0297;
396;0.0507;791;0.0301;
397;0.0490;792;0.0293;
398;0.0474;793;0.0296;
399;0.0467;794;0.0299;
400;0.0460;795;0.0270;
401;0.0450;796;0.0273;
402;0.0445;797;0.0276;
403;0.0440;798;0.0268;
404;0.0437;799;0.0271;
405;0.0437;;;
406;0.0437;;;
407;0.0437;;;
408;0.0438;;;
409;0.0438;;;
410;0.0440;;;
411;0.0440;;;
412;0.0442;;;
413;0.0445;;;
414;0.0447;;;
415;0.0443;;;
416;0.0443;;;
417;0.0443;;;
418;0.0443;;;
419;0.0440;;;
420;0.0438;;;
421;0.0432;;;
422;0.0428;;;
423;0.0423;;;
424;0.0420;;;
425;0.0413;;;
426;0.0407;;;
427;0.0403;;;
428;0.0397;;;
429;0.0390;;;
430;0.0387;;;
431;0.0378;;;
432;0.0373;;;
433;0.0367;;;
434;0.0360;;;
435;0.0356;;;
436;0.0351;;;
437;0.0348;;;
438;0.0343;;;
439;0.0338;;;
440;0.0331;;;
441;0.0326;;;
442;0.0321;;;
443;0.0313;;;
444;0.0303;;;
445;0.0298;;;
446;0.0288;;;
447;0.0280;;;
448;0.0269;;;
449;0.0259;;;
450;0.0251;;;
451;0.0243;;;
452;0.0231;;;
453;0.0221;;;
454;0.0213;;;
455;0.0203;;;
456;0.0194;;;
457;0.0187;;;
458;0.0177;;;
459;0.0171;;;
460;0.0164;;;
461;0.0156;;;
462;0.0151;;;
463;0.0146;;;
464;0.0139;;;
465;0.0134;;;
466;0.0131;;;
467;0.0126;;;
468;0.0122;;;
469;0.0121;;;
470;0.0117;;;
471;0.0116;;;
472;0.0112;;;
473;0.0110;;;
474;0.0109;;;
475;0.0107;;;
476;0.0105;;;
477;0.0102;;;
478;0.0102;;;
479;0.0100;;;
480;0.0099;;;
481;0.0099;;;
482;0.0099;;;
483;0.0097;;;
484;0.0095;;;
485;0.0092;;;
486;0.0092;;;
487;0.0089;;;
488;0.0089;;;
489;0.0090;;;
490;0.0089;;;
491;0.0090;;;
492;0.0089;;;
493;0.0090;;;
494;0.0090;;;
495;0.0090;;;
496;0.0092;;;
497;0.0094;;;
498;0.0097;;;
499;0.0099;;;
500;0.0102;;;
501;0.0105;;;
502;0.0109;;;
503;0.0114;;;
504;0.0117;;;
505;0.0122;;;
506;0.0129;;;
507;0.0132;;;
508;0.0137;;;
509;0.0144;;;
510;0.0151;;;
511;0.0156;;;
512;0.0164;;;
513;0.0169;;;
514;0.0177;;;
515;0.0187;;;
516;0.0194;;;
517;0.0199;;;
518;0.0211;;;
519;0.0218;;;
520;0.0226;;;
521;0.0236;;;
522;0.0246;;;
523;0.0253;;;
524;0.0264;;;
525;0.0273;;;
526;0.0281;;;
527;0.0296;;;
528;0.0306;;;
529;0.0318;;;
530;0.0335;;;
531;0.0345;;;
532;0.0358;;;
533;0.0378;;;
534;0.0393;;;
535;0.0408;;;
536;0.0430;;;
537;0.0449;;;
538;0.0467;;;
539;0.0492;;;
540;0.0512;;;
541;0.0534;;;
542;0.0562;;;
543;0.0584;;;
544;0.0607;;;
545;0.0638;;;
546;0.0663;;;
547;0.0688;;;
548;0.0720;;;
549;0.0745;;;
550;0.0770;;;
551;0.0805;;;
552;0.0828;;;
553;0.0853;;;
554;0.0887;;;
555;0.0910;;;
556;0.0934;;;
557;0.0967;;;
558;0.0994;;;
559;0.1019;;;
560;0.1051;;;
561;0.1078;;;
562;0.1103;;;
563;0.1140;;;
564;0.1168;;;
565;0.1198;;;
566;0.1240;;;
567;0.1272;;;
568;0.1307;;;
569;0.1359;;;
570;0.1399;;;
571;0.1442;;;
572;0.1508;;;
573;0.1560;;;
574;0.1613;;;
575;0.1693;;;
576;0.1757;;;
577;0.1824;;;
578;0.1923;;;
579;0.1998;;;
580;0.2077;;;
581;0.2190;;;
582;0.2276;;;
583;0.2363;;;
584;0.2490;;;
585;0.2583;;;
586;0.2673;;;
587;0.2797;;;
588;0.2883;;;
589;0.2968;;;
590;0.3078;;;
591;0.3154;;;
592;0.3226;;;
593;0.3313;;;
594;0.3370;;;
595;0.3423;;;
596;0.3487;;;
597;0.3527;;;
598;0.3562;;;
599;0.3605;;;
600;0.3629;;;
601;0.3652;;;
602;0.3677;;;
603;0.3692;;;
604;0.3706;;;
605;0.3721;;;
606;0.3733;;;
607;0.3741;;;
608;0.3754;;;
609;0.3768;;;
610;0.3783;;;
611;0.3806;;;
612;0.3830;;;
613;0.3858;;;
614;0.3905;;;
615;0.3949;;;
616;0.3999;;;
617;0.4079;;;
618;0.4151;;;
619;0.4233;;;
620;0.4362;;;
621;0.4471;;;
622;0.4591;;;
623;0.4775;;;
624;0.4924;;;
625;0.5085;;;
626;0.5322;;;
627;0.5513;;;
628;0.5719;;;
629;0.6015;;;
630;0.6241;;;
631;0.6475;;;
632;0.6815;;;
633;0.7069;;;
634;0.7330;;;
635;0.7696;;;
636;0.7962;;;
637;0.8227;;;
638;0.8583;;;
639;0.8832;;;
640;0.9070;;;
641;0.9370;;;
642;0.9560;;;
643;0.9721;;;
644;0.9888;;;
645;0.9965;;;
646;1.0000;;;
647;0.9975;;;
648;0.9897;;;
649;0.9769;;;
650;0.9513;;;
651;0.9274;;;
652;0.8990;;;
653;0.8540;;;
654;0.8173;;;
655;0.7775;;;
656;0.7195;;;
657;0.6758;;;
658;0.6313;;;
659;0.5702;;;
660;0.5270;;;
661;0.4849;;;
662;0.4300;;;
663;0.3920;;;
664;0.3562;;;
665;0.3107;;;
666;0.2807;;;
667;0.2531;;;
668;0.2189;;;
669;0.1966;;;
670;0.1762;;;
671;0.1514;;;
672;0.1355;;;
673;0.1212;;;
674;0.1039;;;
675;0.0929;;;
676;0.0828;;;
677;0.0706;;;
678;0.0631;;;
679;0.0562;;;
680;0.0482;;;
681;0.0428;;;
682;0.0382;;;
683;0.0326;;;
684;0.0291;;;
685;0.0261;;;
686;0.0224;;;
687;0.0201;;;
688;0.0181;;;
689;0.0156;;;
690;0.0139;;;
691;0.0126;;;
692;0.0109;;;
693;0.0099;;;
694;0.0089;;;
695;0.0077;;;
696;0.0069;;;
697;0.0062;;;
698;0.0052;;;
699;0.0047;;;
700;0.0042;;;
701;0.0035;;;
702;0.0032;;;
703;0.0030;;;
704;0.0025;;;
705;0.0023;;;
706;0.0022;;;
707;0.0020;;;
708;0.0018;;;
709;0.0017;;;
710;0.0015;;;
711;0.0013;;;
712;0.0013;;;
713;0.0010;;;
714;0.0008;;;
715;0.0007;;;
716;0.0003;;;
717;0.0003;;;
718;0.0003;;;
719;0.0002;;;
720;0.0002;;;
721;0.0002;;;
724;-0.0002;;;
725;-0.0003;;;
726;-0.0005;;;
727;-0.0003;;;
728;-0.0005;;;
729;-0.0005;;;
730;-0.0005;;;
731;-0.0007;;;
732;-0.0007;;;
733;-0.0005;;;
734;-0.0005;;;
735;-0.0005;;;
736;-0.0005;;;
737;-0.0005;;;
738;-0.0005;;;
739;-0.0005;;;
740;-0.0005;;;
741;-0.0005;;;
742;-0.0005;;;
743;-0.0003;;;
744;-0.0003;;;
745;-0.0003;;;
746;-0.0003;;;
747;-0.0005;;;
748;-0.0003;;;
749;-0.0003;;;
