Exitation wavelength (nm);normalized Exitation;emission wavelength (nm);Normalized emission;
300;0.2082;450;0.0049;
301;0.2047;451;0.0052;
302;0.1958;452;0.0058;
303;0.1848;453;0.0067;
304;0.1772;454;0.0076;
305;0.1692;455;0.0087;
306;0.1619;456;0.0099;
307;0.1553;457;0.0110;
308;0.1501;458;0.0125;
309;0.1445;459;0.0140;
310;0.1400;460;0.0158;
311;0.1371;461;0.0174;
312;0.1342;462;0.0191;
313;0.1318;463;0.0212;
314;0.1298;464;0.0239;
315;0.1282;465;0.0268;
316;0.1264;466;0.0290;
317;0.1239;467;0.0311;
318;0.1226;468;0.0344;
319;0.1210;469;0.0379;
320;0.1189;470;0.0419;
321;0.1190;471;0.0466;
322;0.1195;472;0.0492;
323;0.1207;473;0.0528;
324;0.1238;474;0.0592;
325;0.1268;475;0.0647;
326;0.1321;476;0.0700;
327;0.1385;477;0.0759;
328;0.1453;478;0.0830;
329;0.1533;479;0.0896;
330;0.1622;480;0.0952;
331;0.1707;481;0.1019;
332;0.1802;482;0.1092;
333;0.1898;483;0.1162;
334;0.2014;484;0.1243;
335;0.2124;485;0.1333;
336;0.2247;486;0.1421;
337;0.2363;487;0.1518;
338;0.2485;488;0.1626;
339;0.2604;489;0.1741;
340;0.2721;490;0.1843;
341;0.2859;491;0.1912;
342;0.2992;492;0.2021;
343;0.3127;493;0.2150;
344;0.3260;494;0.2279;
345;0.3414;495;0.2410;
346;0.3571;496;0.2557;
347;0.3725;497;0.2694;
348;0.3867;498;0.2843;
349;0.4028;499;0.2991;
350;0.4176;500;0.3148;
351;0.4347;501;0.3287;
352;0.4488;502;0.3442;
353;0.4667;503;0.3596;
354;0.4814;504;0.3760;
355;0.4965;505;0.3920;
356;0.5120;506;0.4088;
357;0.5273;507;0.4267;
358;0.5431;508;0.4437;
359;0.5575;509;0.4625;
360;0.5700;510;0.4800;
361;0.5858;511;0.4978;
362;0.6006;512;0.5137;
363;0.6141;513;0.5315;
364;0.6295;514;0.5515;
365;0.6469;515;0.5705;
366;0.6631;516;0.5908;
367;0.6792;517;0.6081;
368;0.6932;518;0.6294;
369;0.7093;519;0.6517;
370;0.7227;520;0.6726;
371;0.7358;521;0.6904;
372;0.7485;522;0.7046;
373;0.7611;523;0.7192;
374;0.7740;524;0.7367;
375;0.7845;525;0.7575;
376;0.7977;526;0.7768;
377;0.8061;527;0.7964;
378;0.8184;528;0.8095;
379;0.8284;529;0.8223;
380;0.8380;530;0.8375;
381;0.8448;531;0.8489;
382;0.8541;532;0.8620;
383;0.8623;533;0.8775;
384;0.8708;534;0.8945;
385;0.8798;535;0.9080;
386;0.8883;536;0.9174;
387;0.8965;537;0.9288;
388;0.9061;538;0.9419;
389;0.9134;539;0.9519;
390;0.9253;540;0.9568;
391;0.9347;541;0.9647;
392;0.9442;542;0.9744;
393;0.9538;543;0.9849;
394;0.9640;544;0.9916;
395;0.9751;545;0.9910;
396;0.9803;546;0.9874;
397;0.9874;547;0.9901;
398;0.9927;548;0.9914;
399;0.9977;549;0.9937;
400;1.0000;550;0.9990;
401;0.9989;551;1.0000;
402;0.9992;552;0.9982;
403;0.9953;553;0.9961;
404;0.9914;554;0.9946;
405;0.9864;555;0.9926;
406;0.9779;556;0.9899;
407;0.9709;557;0.9911;
408;0.9641;558;0.9878;
409;0.9534;559;0.9860;
410;0.9418;560;0.9815;
411;0.9302;561;0.9812;
412;0.9143;562;0.9746;
413;0.9021;563;0.9711;
414;0.8881;564;0.9673;
415;0.8712;565;0.9664;
416;0.8547;566;0.9645;
417;0.8374;567;0.9593;
418;0.8234;568;0.9510;
419;0.8050;569;0.9448;
420;0.7866;570;0.9372;
421;0.7690;571;0.9295;
422;0.7482;572;0.9262;
423;0.7276;573;0.9188;
424;0.7078;574;0.9136;
425;0.6872;575;0.9063;
426;0.6663;576;0.8965;
427;0.6429;577;0.8869;
428;0.6214;578;0.8778;
429;0.5999;579;0.8690;
430;0.5772;580;0.8608;
431;0.5543;581;0.8546;
432;0.5320;582;0.8463;
433;0.5101;583;0.8376;
434;0.4880;584;0.8262;
435;0.4659;585;0.8152;
436;0.4428;586;0.8051;
437;0.4225;587;0.7966;
438;0.4015;588;0.7863;
439;0.3812;589;0.7784;
440;0.3610;590;0.7681;
441;0.3409;591;0.7568;
442;0.3224;592;0.7454;
443;0.3026;593;0.7349;
444;0.2838;594;0.7263;
445;0.2665;595;0.7176;
446;0.2482;596;0.7090;
447;0.2321;597;0.7009;
448;0.2172;598;0.6913;
449;0.2050;599;0.6829;
450;0.1931;600;0.6717;
451;0.1813;601;0.6608;
452;0.1701;602;0.6500;
453;0.1578;603;0.6387;
454;0.1466;604;0.6285;
455;0.1352;605;0.6198;
456;0.1252;606;0.6153;
457;0.1156;607;0.6069;
458;0.1069;608;0.5958;
459;0.0982;609;0.5838;
460;0.0902;610;0.5720;
461;0.0829;611;0.5617;
462;0.0758;612;0.5557;
463;0.0696;613;0.5462;
464;0.0638;614;0.5374;
465;0.0580;615;0.5299;
466;0.0530;616;0.5193;
467;0.0485;617;0.5096;
468;0.0444;618;0.5022;
469;0.0403;619;0.4922;
470;0.0368;620;0.4848;
471;0.0332;621;0.4758;
472;0.0301;622;0.4659;
473;0.0274;623;0.4593;
474;0.0253;624;0.4490;
475;0.0230;625;0.4414;
476;0.0207;626;0.4348;
477;0.0188;627;0.4288;
478;0.0169;628;0.4218;
479;0.0152;629;0.4128;
480;0.0138;630;0.4048;
481;0.0128;631;0.3994;
482;0.0117;632;0.3900;
483;0.0109;633;0.3800;
484;0.0100;634;0.3744;
485;0.0095;635;0.3652;
486;0.0088;636;0.3575;
487;0.0080;637;0.3522;
488;0.0074;638;0.3456;
489;0.0070;639;0.3403;
490;0.0068;640;0.3354;
491;0.0064;641;0.3278;
492;0.0062;642;0.3212;
493;0.0061;643;0.3152;
494;0.0060;644;0.3092;
495;0.0058;645;0.3020;
496;0.0059;646;0.2970;
497;0.0060;647;0.2900;
498;0.0060;648;0.2829;
499;0.0060;649;0.2767;
500;0.0060;650;0.2706;
;;651;0.2639;
;;652;0.2603;
;;653;0.2568;
;;654;0.2499;
;;655;0.2487;
;;656;0.2435;
;;657;0.2378;
;;658;0.2343;
;;659;0.2276;
;;660;0.2240;
;;661;0.2193;
;;662;0.2140;
;;663;0.2116;
;;664;0.2102;
;;665;0.2031;
;;666;0.1992;
;;667;0.1928;
;;668;0.1908;
;;669;0.1872;
;;670;0.1850;
;;671;0.1797;
;;672;0.1744;
;;673;0.1709;
;;674;0.1656;
;;675;0.1615;
;;676;0.1589;
;;677;0.1541;
;;678;0.1509;
;;679;0.1481;
;;680;0.1458;
;;681;0.1432;
;;682;0.1405;
;;683;0.1379;
;;684;0.1333;
;;685;0.1304;
;;686;0.1290;
;;687;0.1248;
;;688;0.1220;
;;689;0.1197;
;;690;0.1159;
;;691;0.1120;
;;692;0.1119;
;;693;0.1088;
;;694;0.1058;
;;695;0.1024;
;;696;0.1001;
;;697;0.0983;
;;698;0.0959;
;;699;0.0929;
